0,0.52549
0.008,0.51961
0.016,0.51569
0.024,0.50588
0.032,0.5098
0.04,0.50588
0.048,0.51569
0.056,0.51569
0.064,0.51961
0.072,0.51961
0.08,0.52549
0.088,0.52549
0.096,0.53529
0.104,0.52941
0.112,0.52549
0.12,0.53529
0.128,0.52549
0.136,0.51961
0.144,0.51961
0.152,0.51961
0.16,0.51569
0.168,0.51961
0.176,0.51569
0.184,0.51961
0.192,0.51569
0.2,0.51961
0.208,0.51569
0.216,0.51961
0.224,0.51569
0.232,0.51961
0.24,0.52941
0.248,0.5549
0.256,0.56471
0.264,0.57451
0.272,0.5451
0.28,0.52941
0.288,0.5
0.296,0.4902
0.304,0.47451
0.312,0.47059
0.32,0.47451
0.328,0.49412
0.336,0.50588
0.344,0.51961
0.352,0.51569
0.36,0.51569
0.368,0.5549
0.376,0.6451
0.384,0.55098
0.392,0.052941
0.4,-0.50196
0.408,-0.41176
0.416,0.2
0.424,0.43922
0.432,0.50588
0.44,0.53922
0.448,0.56471
0.456,0.58039
0.464,0.59608
0.472,0.58039
0.48,0.56471
0.488,0.5549
0.496,0.5549
0.504,0.5451
0.512,0.53922
0.52,0.53922
0.528,0.52941
0.536,0.51961
0.544,0.51961
0.552,0.52549
0.56,0.53529
0.568,0.53922
0.576,0.52549
0.584,0.51961
0.592,0.51569
0.6,0.5098
0.608,0.5
0.616,0.5
0.624,0.4902
0.632,0.4902
0.64,0.47451
0.648,0.48431
0.656,0.48431
0.664,0.4902
0.672,0.48431
0.68,0.5
0.688,0.5098
0.696,0.51961
0.704,0.52549
0.712,0.52549
0.72,0.52549
0.728,0.52941
0.736,0.52549
0.744,0.51961
0.752,0.51569
0.76,0.50588
0.768,0.5
0.776,0.5
0.784,0.50588
0.792,0.5098
0.8,0.51569
0.808,0.5
0.816,0.50588
0.824,0.50588
0.832,0.5
0.84,0.5
0.848,0.50588
0.856,0.5
0.864,0.5098
0.872,0.50588
0.88,0.53529
0.888,0.5549
0.896,0.57059
0.904,0.5549
0.912,0.53922
0.92,0.5
0.928,0.48431
0.936,0.46471
0.944,0.46078
0.952,0.46471
0.96,0.46078
0.968,0.47451
0.976,0.47451
0.984,0.47059
0.992,0.46471
1,0.47451
1.008,0.56471
1.016,0.58431
1.024,0.23922
1.032,-0.38824
1.04,-0.50196
1.048,0.029412
1.056,0.39412
1.064,0.47451
1.072,0.48039
1.08,0.5
1.088,0.5098
1.096,0.51961
1.104,0.52549
1.112,0.51961
1.12,0.50588
1.128,0.49412
1.136,0.4902
1.144,0.49412
1.152,0.5
1.16,0.48431
1.168,0.47451
1.176,0.48039
1.184,0.4902
1.192,0.4902
1.2,0.49412
1.208,0.47451
1.216,0.46078
1.224,0.4451
1.232,0.42941
1.24,0.42941
1.248,0.42549
1.256,0.42549
1.264,0.42941
1.272,0.4098
1.28,0.40392
1.288,0.42941
1.296,0.47059
1.304,0.5
1.312,0.53922
1.32,0.56471
1.328,0.59608
1.336,0.6
1.344,0.6098
1.352,0.61569
1.36,0.6098
1.368,0.5902
1.376,0.58431
1.384,0.58039
1.392,0.58431
1.4,0.5902
1.408,0.59608
1.416,0.60588
1.424,0.59608
1.432,0.59608
1.44,0.5902
1.448,0.5902
1.456,0.57059
1.464,0.57059
1.472,0.56471
1.48,0.56471
1.488,0.5549
1.496,0.55098
1.504,0.5451
1.512,0.56078
1.52,0.57059
1.528,0.59608
1.536,0.60588
1.544,0.61569
1.552,0.5902
1.56,0.56471
1.568,0.52549
1.576,0.51569
1.584,0.4902
1.592,0.48431
1.6,0.49412
1.608,0.5
1.616,0.5
1.624,0.5
1.632,0.5
1.64,0.49412
1.648,0.55098
1.656,0.6098
1.664,0.44902
1.672,-0.16275
1.68,-0.50196
1.688,-0.33725
1.696,0.21373
1.704,0.39412
1.712,0.43922
1.72,0.47451
1.728,0.5
1.736,0.51961
1.744,0.51569
1.752,0.5
1.76,0.48431
1.768,0.48039
1.776,0.48431
1.784,0.49412
1.792,0.5
1.8,0.49412
1.808,0.47451
1.816,0.48431
1.824,0.47451
1.832,0.48039
1.84,0.47451
1.848,0.48039
1.856,0.47451
1.864,0.48039
1.872,0.47451
1.88,0.47451
1.888,0.47059
1.896,0.47451
1.904,0.48039
1.912,0.48039
1.92,0.48039
1.928,0.48431
1.936,0.48039
1.944,0.48039
1.952,0.48039
1.96,0.4902
1.968,0.49412
1.976,0.49412
1.984,0.5
1.992,0.5
2,0.50588
2.008,0.5
2.016,0.51569
2.024,0.5098
2.032,0.51569
2.04,0.5098
2.048,0.5098
2.056,0.5
2.064,0.5098
2.072,0.50588
2.08,0.5098
2.088,0.50588
2.096,0.5098
2.104,0.50588
2.112,0.5
2.12,0.5
2.128,0.50588
2.136,0.50588
2.144,0.5098
2.152,0.5098
2.16,0.52941
2.168,0.5451
2.176,0.56471
2.184,0.57059
2.192,0.57451
2.2,0.5451
2.208,0.51961
2.216,0.49412
2.224,0.47059
2.232,0.46078
2.24,0.46471
2.248,0.48039
2.256,0.4902
2.264,0.5
2.272,0.49412
2.28,0.49412
2.288,0.4902
2.296,0.6
2.304,0.61569
2.312,0.2
2.32,-0.50196
2.328,-0.50196
2.336,-0.072549
2.344,0.3
2.352,0.4098
2.36,0.47059
2.368,0.50588
2.376,0.53529
2.384,0.5451
2.392,0.53922
2.4,0.53922
2.408,0.52941
2.416,0.52549
2.424,0.51961
2.432,0.52941
2.44,0.52941
2.448,0.53529
2.456,0.51961
2.464,0.51961
2.472,0.52549
2.48,0.51961
2.488,0.51961
2.496,0.51961
2.504,0.51569
2.512,0.51569
2.52,0.5098
2.528,0.5098
2.536,0.50588
2.544,0.51961
2.552,0.51961
2.56,0.51961
2.568,0.50588
2.576,0.5
2.584,0.49412
2.592,0.5
2.6,0.50588
2.608,0.51569
2.616,0.52941
2.624,0.5451
2.632,0.5451
2.64,0.56471
2.648,0.57451
2.656,0.57451
2.664,0.57059
2.672,0.57059
2.68,0.57451
2.688,0.57059
2.696,0.58039
2.704,0.57451
2.712,0.58039
2.72,0.57059
2.728,0.57451
2.736,0.57059
2.744,0.57059
2.752,0.56471
2.76,0.5549
2.768,0.5451
2.776,0.53922
2.784,0.53529
2.792,0.53922
2.8,0.5451
2.808,0.56078
2.816,0.5902
2.824,0.6
2.832,0.5902
2.84,0.56078
2.848,0.52941
2.856,0.5
2.864,0.4902
2.872,0.48039
2.88,0.47451
2.888,0.48039
2.896,0.49412
2.904,0.49412
2.912,0.5
2.92,0.4902
2.928,0.48431
2.936,0.58431
2.944,0.61569
2.952,0.2902
2.96,-0.36275
2.968,-0.50196
2.976,-0.0058823
2.984,0.38039
2.992,0.4451
3,0.47059
3.008,0.49412
3.016,0.51569
3.024,0.52941
3.032,0.51569
3.04,0.50588
3.048,0.5098
3.056,0.50588
3.064,0.5
3.072,0.49412
3.08,0.5
3.088,0.48431
3.096,0.47451
3.104,0.47059
3.112,0.47451
3.12,0.47059
3.128,0.47451
3.136,0.47059
3.144,0.46471
3.152,0.4549
3.16,0.44902
3.168,0.43529
3.176,0.42941
3.184,0.43922
3.192,0.42941
3.2,0.4451
3.208,0.4451
3.216,0.46471
3.224,0.46471
3.232,0.47451
3.24,0.4902
3.248,0.5
3.256,0.4902
3.264,0.5098
3.272,0.5098
3.28,0.51961
3.288,0.51569
3.296,0.51961
3.304,0.50588
3.312,0.51961
3.32,0.51961
3.328,0.52941
3.336,0.51961
3.344,0.52549
3.352,0.52941
3.36,0.52941
3.368,0.52549
3.376,0.51961
3.384,0.51569
3.392,0.50588
3.4,0.5098
3.408,0.50588
3.416,0.5098
3.424,0.50588
3.432,0.51569
3.44,0.53922
3.448,0.56078
3.456,0.57451
3.464,0.5902
3.472,0.57059
3.48,0.5451
3.488,0.50588
3.496,0.5
3.504,0.4902
3.512,0.5
3.52,0.5
3.528,0.51961
3.536,0.53529
3.544,0.51961
3.552,0.5
3.56,0.51569
3.568,0.58431
3.576,0.68039
3.584,0.57059
3.592,0.068627
3.6,-0.42745
3.608,-0.43333
3.616,0.30392
3.624,0.50588
3.632,0.52941
3.64,0.53922
3.648,0.5549
3.656,0.56078
3.664,0.58039
3.672,0.58431
3.68,0.56471
3.688,0.53529
3.696,0.53529
3.704,0.53529
3.712,0.53529
3.72,0.51961
3.728,0.5098
3.736,0.5
3.744,0.51569
3.752,0.5098
3.76,0.5098
3.768,0.49412
3.776,0.47451
3.784,0.4549
3.792,0.44902
3.8,0.43922
3.808,0.43922
3.816,0.43922
3.824,0.43529
3.832,0.4451
3.84,0.43922
3.848,0.44902
3.856,0.4549
3.864,0.46078
3.872,0.46078
3.88,0.46471
3.888,0.47451
3.896,0.4902
3.904,0.5
3.912,0.50588
3.92,0.50588
3.928,0.5098
3.936,0.5
3.944,0.5098
3.952,0.5
3.96,0.5
3.968,0.5
3.976,0.5
3.984,0.5
3.992,0.5
4,0.5
4.008,0.4902
4.016,0.49412
4.024,0.4902
4.032,0.49412
4.04,0.49412
4.048,0.5
4.056,0.5
4.064,0.5098
4.072,0.5098
4.08,0.51961
4.088,0.53529
4.096,0.5549
4.104,0.57059
4.112,0.57451
4.12,0.53529
4.128,0.53922
4.136,0.4902
4.144,0.47059
4.152,0.44902
4.16,0.44902
4.168,0.46078
4.176,0.47451
4.184,0.48039
4.192,0.47451
4.2,0.48039
4.208,0.47451
4.216,0.58039
4.224,0.6098
4.232,0.3098
4.24,-0.41176
4.248,-0.50196
4.256,-0.24706
4.264,0.2451
4.272,0.3902
4.28,0.46078
4.288,0.5
4.296,0.53529
4.304,0.53922
4.312,0.52941
4.32,0.51961
4.328,0.52549
4.336,0.51569
4.344,0.51961
4.352,0.53529
4.36,0.5451
4.368,0.52941
4.376,0.52549
4.384,0.51961
4.392,0.52549
4.4,0.51961
4.408,0.51961
4.416,0.51961
4.424,0.51961
4.432,0.52941
4.44,0.51961
4.448,0.52549
4.456,0.51961
4.464,0.52941
4.472,0.52549
4.48,0.53529
4.488,0.52549
4.496,0.52549
4.504,0.5098
4.512,0.50588
4.52,0.5
4.528,0.50588
4.536,0.5098
4.544,0.51961
4.552,0.51961
4.56,0.52549
4.568,0.52941
4.576,0.51961
4.584,0.52941
4.592,0.53529
4.6,0.52941
4.608,0.52941
4.616,0.53529
4.624,0.52941
4.632,0.52549
4.64,0.51961
4.648,0.52941
4.656,0.51961
4.664,0.51961
4.672,0.51961
4.68,0.52549
4.688,0.52549
4.696,0.52549
4.704,0.51961
4.712,0.52549
4.72,0.53529
4.728,0.5549
4.736,0.57059
4.744,0.58039
4.752,0.56471
4.76,0.5451
4.768,0.52549
4.776,0.50588
4.784,0.47451
4.792,0.47059
4.8,0.47451
4.808,0.4902
4.816,0.5
4.824,0.51569
4.832,0.51961
4.84,0.51569
4.848,0.51961
4.856,0.59608
4.864,0.6451
4.872,0.4
4.88,-0.27255
4.888,-0.50196
4.896,-0.12745
4.904,0.33922
4.912,0.48039
4.92,0.51961
4.928,0.55098
4.936,0.57059
4.944,0.58431
4.952,0.58039
4.96,0.56471
4.968,0.55098
4.976,0.56078
4.984,0.5451
4.992,0.53922
5,0.55098
5.008,0.53922
5.016,0.52941
5.024,0.52549
5.032,0.53529
5.04,0.52549
5.048,0.52941
5.056,0.51961
5.064,0.51961
5.072,0.50588
5.08,0.5
5.088,0.5
5.096,0.5
5.104,0.48431
5.112,0.4902
5.12,0.48039
5.128,0.49412
5.136,0.5
5.144,0.5
5.152,0.4902
5.16,0.5
5.168,0.5
5.176,0.51961
5.184,0.51961
5.192,0.52941
5.2,0.53529
5.208,0.52941
5.216,0.52549
5.224,0.51961
5.232,0.51961
5.24,0.51569
5.248,0.50588
5.256,0.5
5.264,0.51569
5.272,0.5098
5.28,0.52549
5.288,0.51961
5.296,0.51569
5.304,0.5098
5.312,0.51569
5.32,0.50588
5.328,0.5098
5.336,0.50588
5.344,0.5
5.352,0.50588
5.36,0.53529
5.368,0.55098
5.376,0.56471
5.384,0.57059
5.392,0.53922
5.4,0.5
5.408,0.49412
5.416,0.47059
5.424,0.44902
5.432,0.4549
5.44,0.46078
5.448,0.47451
5.456,0.47451
5.464,0.48039
5.472,0.47451
5.48,0.49412
5.488,0.58039
5.496,0.58431
5.504,0.15882
5.512,-0.44314
5.52,-0.50196
5.528,0.11373
5.536,0.42941
5.544,0.47451
5.552,0.4902
5.56,0.51961
5.568,0.51961
5.576,0.52941
5.584,0.51961
5.592,0.50588
5.6,0.48431
5.608,0.4902
5.616,0.49412
5.624,0.5
5.632,0.50588
5.64,0.49412
5.648,0.49412
5.656,0.4902
5.664,0.5
5.672,0.49412
5.68,0.48431
5.688,0.47451
5.696,0.46078
5.704,0.44902
5.712,0.44902
5.72,0.4451
5.728,0.44902
5.736,0.44902
5.744,0.4549
5.752,0.4451
5.76,0.46078
5.768,0.4902
5.776,0.52941
5.784,0.5549
5.792,0.58039
5.8,0.6
5.808,0.61569
5.816,0.61569
5.824,0.6098
5.832,0.61569
5.84,0.6
5.848,0.58039
5.856,0.57059
5.864,0.57059
5.872,0.57451
5.88,0.58431
5.888,0.58431
5.896,0.5902
5.904,0.57451
5.912,0.58431
5.92,0.57451
5.928,0.58039
5.936,0.57059
5.944,0.56471
5.952,0.5549
5.96,0.5549
5.968,0.5451
5.976,0.53922
5.984,0.53922
5.992,0.5549
6,0.57059
6.008,0.5902
6.016,0.5902
6.024,0.57059
6.032,0.55098
6.04,0.51961
6.048,0.5
6.056,0.48039
6.064,0.47059
6.072,0.46471
6.08,0.48039
6.088,0.4902
6.096,0.5
6.104,0.4902
6.112,0.48431
6.12,0.51961
6.128,0.61569
6.136,0.48431
6.144,-0.031373
6.152,-0.50196
6.16,-0.46863
6.168,0.11373
6.176,0.36471
6.184,0.43529
6.192,0.47059
6.2,0.5
6.208,0.51961
6.216,0.51961
6.224,0.51961
6.232,0.50588
6.24,0.50588
6.248,0.5
6.256,0.5098
6.264,0.51961
6.272,0.50588
6.28,0.5
6.288,0.5
6.296,0.5
6.304,0.49412
6.312,0.5
6.32,0.5
6.328,0.5
6.336,0.4902
6.344,0.48431
6.352,0.48431
6.36,0.4902
6.368,0.48431
6.376,0.5
6.384,0.49412
6.392,0.5
6.4,0.49412
6.408,0.5
6.416,0.48431
6.424,0.4902
6.432,0.49412
6.44,0.5
6.448,0.5
6.456,0.50588
6.464,0.5098
6.472,0.5098
6.48,0.51961
6.488,0.51569
6.496,0.51961
6.504,0.5098
6.512,0.51569
6.52,0.5098
6.528,0.5098
6.536,0.5098
6.544,0.51961
6.552,0.5098
6.56,0.5098
6.568,0.5098
6.576,0.51961
6.584,0.51569
6.592,0.51961
6.6,0.51961
6.608,0.51961
6.616,0.51961
6.624,0.53529
6.632,0.5549
6.64,0.57059
6.648,0.5902
6.656,0.5902
6.664,0.56078
6.672,0.53922
6.68,0.50588
6.688,0.48431
6.696,0.47059
6.704,0.46078
6.712,0.47451
6.72,0.48431
6.728,0.49412
6.736,0.48431
6.744,0.4902
6.752,0.48039
6.76,0.58431
6.768,0.61961
6.776,0.3451
6.784,-0.36667
6.792,-0.50196
6.8,-0.21176
6.808,0.26863
6.816,0.41569
6.824,0.48431
6.832,0.5098
6.84,0.53529
6.848,0.5451
6.856,0.55098
6.864,0.53922
6.872,0.52941
6.88,0.5451
6.888,0.53529
6.896,0.5451
6.904,0.5451
6.912,0.53922
6.92,0.52941
6.928,0.53529
6.936,0.52549
6.944,0.52941
6.952,0.51961
6.96,0.51569
6.968,0.51569
6.976,0.51961
6.984,0.51961
6.992,0.52549
7,0.51961
7.008,0.52941
7.016,0.53529
7.024,0.53922
7.032,0.52549
7.04,0.51961
7.048,0.51569
7.056,0.5098
7.064,0.5098
7.072,0.5098
7.08,0.51569
7.088,0.5098
7.096,0.51569
7.104,0.5098
7.112,0.51961
7.12,0.51961
7.128,0.52941
7.136,0.52941
7.144,0.52941
7.152,0.52941
7.16,0.52549
7.168,0.52549
7.176,0.53922
7.184,0.53529
7.192,0.5451
7.2,0.5451
7.208,0.5549
7.216,0.56078
7.224,0.56078
7.232,0.5549
7.24,0.55098
7.248,0.5549
7.256,0.55098
7.264,0.57059
7.272,0.5902
7.28,0.60588
7.288,0.60588
7.296,0.58431
7.304,0.56078
7.312,0.52549
7.32,0.5
7.328,0.47451
7.336,0.47451
7.344,0.47451
7.352,0.47451
7.36,0.49412
7.368,0.49412
7.376,0.5
7.384,0.4902
7.392,0.52941
7.4,0.61961
7.408,0.5098
7.416,-0.011765
7.424,-0.50196
7.432,-0.36275
7.44,0.21961
7.448,0.41961
7.456,0.4451
7.464,0.47451
7.472,0.49412
7.48,0.51569
7.488,0.51961
7.496,0.50588
7.504,0.5
7.512,0.50588
7.52,0.5
7.528,0.49412
7.536,0.4902
7.544,0.5
7.552,0.4902
7.56,0.48431
7.568,0.47451
7.576,0.47451
7.584,0.48039
7.592,0.47451
7.6,0.47059
7.608,0.46471
7.616,0.4549
7.624,0.44902
7.632,0.4549
7.64,0.44902
7.648,0.44902
7.656,0.4549
7.664,0.44902
7.672,0.44902
7.68,0.46078
7.688,0.4549
7.696,0.47451
7.704,0.47451
7.712,0.4902
7.72,0.49412
7.728,0.50588
7.736,0.50588
7.744,0.5098
7.752,0.5
7.76,0.5
7.768,0.4902
7.776,0.4902
7.784,0.4902
7.792,0.5
7.8,0.4902
7.808,0.5
7.816,0.49412
7.824,0.4902
7.832,0.48431
7.84,0.48039
7.848,0.4902
7.856,0.48431
7.864,0.48039
7.872,0.47451
7.88,0.48431
7.888,0.48039
7.896,0.51961
7.904,0.53922
7.912,0.56078
7.92,0.57059
7.928,0.5549
7.936,0.51569
7.944,0.4902
7.952,0.47451
7.96,0.46471
7.968,0.4549
7.976,0.46471
7.984,0.47451
7.992,0.4902
8,0.49412
8.008,0.48039
8.016,0.48039
8.024,0.52941
8.032,0.5902
8.04,0.46078
8.048,-0.072549
8.056,-0.50196
8.064,-0.23725
8.072,0.28431
8.08,0.46078
8.088,0.44902
8.096,0.47451
8.104,0.49412
8.112,0.51569
8.12,0.53529
8.128,0.5451
8.136,0.53529
8.144,0.53529
8.152,0.53529
8.16,0.5451
8.168,0.53922
8.176,0.52941
8.184,0.52549
8.192,0.52941
8.2,0.53922
8.208,0.5549
8.216,0.56078
8.224,0.5451
8.232,0.51961
8.24,0.5098
8.248,0.49412
8.256,0.48039
8.264,0.47059
8.272,0.46471
8.28,0.47059
8.288,0.47451
8.296,0.48039
8.304,0.49412
8.312,0.5098
8.32,0.51961
8.328,0.52941
8.336,0.52941
8.344,0.53922
8.352,0.5451
8.36,0.56078
8.368,0.57059
8.376,0.56471
8.384,0.5549
8.392,0.5549
8.4,0.5451
8.408,0.53922
8.416,0.52941
8.424,0.52941
8.432,0.51961
8.44,0.52549
8.448,0.51961
8.456,0.52549
8.464,0.51569
8.472,0.50588
8.48,0.50588
8.488,0.5
8.496,0.50588
8.504,0.5
8.512,0.50588
8.52,0.49412
8.528,0.5
8.536,0.51569
8.544,0.53922
8.552,0.5549
8.56,0.56471
8.568,0.53529
8.576,0.51961
8.584,0.4902
8.592,0.47451
8.6,0.4451
8.608,0.43922
8.616,0.4451
8.624,0.4549
8.632,0.47059
8.64,0.47451
8.648,0.47451
8.656,0.47059
8.664,0.5
8.672,0.6
8.68,0.4902
8.688,-0.0019608
8.696,-0.50196
8.704,-0.50196
8.712,0.052941
8.72,0.33922
8.728,0.41961
8.736,0.46078
8.744,0.49412
8.752,0.51961
8.76,0.51961
8.768,0.5
8.776,0.5
8.784,0.5
8.792,0.5
8.8,0.50588
8.808,0.51569
8.816,0.5098
8.824,0.5
8.832,0.49412
8.84,0.49412
8.848,0.4902
8.856,0.49412
8.864,0.4902
8.872,0.49412
8.88,0.49412
8.888,0.5
8.896,0.5
8.904,0.5
8.912,0.5098
8.92,0.50588
8.928,0.51569
8.936,0.51961
8.944,0.51961
8.952,0.51961
8.96,0.51569
8.968,0.5
8.976,0.5098
8.984,0.50588
8.992,0.51569
9,0.50588
9.008,0.51569
9.016,0.51569
9.024,0.51961
9.032,0.51961
9.04,0.52941
9.048,0.52549
9.056,0.53529
9.064,0.51961
9.072,0.51961
9.08,0.51961
9.088,0.51961
9.096,0.51569
9.104,0.51569
9.112,0.51961
9.12,0.51569
9.128,0.51961
9.136,0.51961
9.144,0.52549
9.152,0.51961
9.16,0.52941
9.168,0.53529
9.176,0.5549
9.184,0.57451
9.192,0.5902
9.2,0.59608
9.208,0.56078
9.216,0.53922
9.224,0.51961
9.232,0.49412
9.24,0.48039
9.248,0.47451
9.256,0.48431
9.264,0.5
9.272,0.50588
9.28,0.5
9.288,0.5
9.296,0.5
9.304,0.5902
9.312,0.63529
9.32,0.38431
9.328,-0.30784
9.336,-0.50196
9.344,-0.21176
9.352,0.27451
9.36,0.42941
9.368,0.48039
9.376,0.51961
9.384,0.53529
9.392,0.5451
9.4,0.52941
9.408,0.51961
9.416,0.5098
9.424,0.5098
9.432,0.5
9.44,0.51961
9.448,0.52941
9.456,0.53922
9.464,0.5451
9.472,0.53922
9.48,0.56078
9.488,0.56471
9.496,0.56471
9.504,0.56078
9.512,0.57059
9.52,0.57059
9.528,0.57059
9.536,0.57059
9.544,0.57451
9.552,0.57451
9.56,0.58039
9.568,0.57059
9.576,0.57059
9.584,0.56078
9.592,0.5549
9.6,0.5451
9.608,0.5451
9.616,0.5451
9.624,0.5451
9.632,0.55098
9.64,0.56078
9.648,0.55098
9.656,0.5549
9.664,0.56078
9.672,0.5451
9.68,0.5549
9.688,0.5451
9.696,0.5451
9.704,0.5451
9.712,0.53529
9.72,0.53529
9.728,0.53529
9.736,0.52941
9.744,0.53529
9.752,0.51961
9.76,0.52549
9.768,0.51569
9.776,0.51961
9.784,0.51569
9.792,0.51961
9.8,0.51961
9.808,0.5451
9.816,0.56471
9.824,0.58039
9.832,0.57059
9.84,0.5451
9.848,0.50588
9.856,0.4902
9.864,0.47451
9.872,0.47451
9.88,0.46471
9.888,0.47451
9.896,0.47451
9.904,0.48039
9.912,0.47451
9.92,0.47059
9.928,0.47451
9.936,0.5451
9.944,0.5902
9.952,0.3549
9.96,-0.25686
9.968,-0.50196
9.976,-0.12157
9.984,0.33529
9.992,0.43922
10,0.44902
10.008,0.4902
10.016,0.5
10.024,0.51961
10.032,0.51569
10.04,0.5098
10.048,0.4902
10.056,0.48039
10.064,0.47451
10.072,0.47451
10.08,0.48039
10.088,0.47451
10.096,0.47059
10.104,0.47451
10.112,0.47451
10.12,0.48039
10.128,0.47451
10.136,0.47059
10.144,0.47451
10.152,0.44902
10.16,0.4451
10.168,0.42549
10.176,0.42941
10.184,0.42941
10.192,0.43529
10.2,0.4451
10.208,0.44902
10.216,0.46078
10.224,0.47451
10.232,0.48039
10.24,0.5
10.248,0.51569
10.256,0.52549
10.264,0.52941
10.272,0.53922
10.28,0.5451
10.288,0.5451
10.296,0.53922
10.304,0.52941
10.312,0.5451
10.32,0.5451
10.328,0.55098
10.336,0.55098
10.344,0.56078
10.352,0.5549
10.36,0.56078
10.368,0.5451
10.376,0.55098
10.384,0.5451
10.392,0.55098
10.4,0.5451
10.408,0.52941
10.416,0.51961
10.424,0.53529
10.432,0.56471
10.44,0.6098
10.448,0.64118
10.456,0.66471
10.464,0.67059
10.472,0.6451
10.48,0.6
10.488,0.56471
10.496,0.5451
10.504,0.52549
10.512,0.52549
10.52,0.52941
10.528,0.5451
10.536,0.5549
10.544,0.56471
10.552,0.55098
10.56,0.53922
10.568,0.58431
10.576,0.6549
10.584,0.5098
10.592,-0.047059
10.6,-0.50196
10.608,-0.30784
10.616,0.2549
10.624,0.46078
10.632,0.49412
10.64,0.51961
10.648,0.52941
10.656,0.5451
10.664,0.55098
10.672,0.52549
10.68,0.50588
10.688,0.49412
10.696,0.5
10.704,0.5098
10.712,0.50588
10.72,0.5
10.728,0.4902
10.736,0.49412
10.744,0.4902
10.752,0.48431
10.76,0.4902
10.768,0.47451
10.776,0.48039
10.784,0.47059
10.792,0.46471
10.8,0.4549
10.808,0.46078
10.816,0.44902
10.824,0.46471
10.832,0.46471
10.84,0.47451
10.848,0.47059
10.856,0.47451
10.864,0.47451
10.872,0.48431
10.88,0.4902
10.888,0.5
10.896,0.50588
10.904,0.51569
10.912,0.51961
10.92,0.51569
10.928,0.51961
10.936,0.52549
10.944,0.52941
10.952,0.51961
10.96,0.52549
10.968,0.51961
10.976,0.51961
10.984,0.51961
10.992,0.51961
11,0.51961
11.008,0.51961
11.016,0.51569
11.024,0.5098
11.032,0.50588
11.04,0.5098
11.048,0.5098
11.056,0.5098
11.064,0.51569
11.072,0.52941
11.08,0.55098
11.088,0.58039
11.096,0.5902
11.104,0.58039
11.112,0.55098
11.12,0.52941
11.128,0.5
11.136,0.48039
11.144,0.46471
11.152,0.46078
11.16,0.47451
11.168,0.4902
11.176,0.5
11.184,0.4902
11.192,0.5
11.2,0.49412
11.208,0.5902
11.216,0.61569
11.224,0.30392
11.232,-0.39216
11.24,-0.50196
11.248,-0.17255
11.256,0.27451
11.264,0.41569
11.272,0.48039
11.28,0.51569
11.288,0.5451
11.296,0.5549
11.304,0.5451
11.312,0.53529
11.32,0.5451
11.328,0.53529
11.336,0.52941
11.344,0.53529
11.352,0.53529
11.36,0.53922
11.368,0.52549
11.376,0.52941
11.384,0.52941
11.392,0.53529
11.4,0.52549
11.408,0.52549
11.416,0.51961
11.424,0.53529
11.432,0.52549
11.44,0.52941
11.448,0.53529
11.456,0.52941
11.464,0.53922
11.472,0.5451
11.48,0.53529
11.488,0.52941
11.496,0.51569
11.504,0.51569
11.512,0.51569
11.52,0.51961
11.528,0.51961
11.536,0.51961
11.544,0.52549
11.552,0.51961
11.56,0.53529
11.568,0.53529
11.576,0.53922
11.584,0.53922
11.592,0.53922
11.6,0.53529
11.608,0.53922
11.616,0.53529
11.624,0.53922
11.632,0.53529
11.64,0.53529
11.648,0.52549
11.656,0.52941
11.664,0.51961
11.672,0.52549
11.68,0.51961
11.688,0.52549
11.696,0.52941
11.704,0.5451
11.712,0.56078
11.72,0.58039
11.728,0.5902
11.736,0.59608
11.744,0.56471
11.752,0.5451
11.76,0.51569
11.768,0.4902
11.776,0.47451
11.784,0.47059
11.792,0.47451
11.8,0.48431
11.808,0.49412
11.816,0.4902
11.824,0.49412
11.832,0.4902
11.84,0.57059
11.848,0.61961
11.856,0.39412
11.864,-0.25294
11.872,-0.50196
11.88,-0.21765
11.888,0.25882
11.896,0.42549
11.904,0.4902
11.912,0.52549
11.92,0.5549
11.928,0.57451
11.936,0.57451
11.944,0.56471
11.952,0.5549
11.96,0.56078
11.968,0.5451
11.976,0.5451
11.984,0.53922
11.992,0.5451
12,0.53529
12.008,0.53922
12.016,0.53922
12.024,0.5451
12.032,0.53529
12.04,0.52941
12.048,0.53529
12.056,0.53529
12.064,0.51961
12.072,0.51961
12.08,0.51961
12.088,0.51961
12.096,0.51961
12.104,0.51961
12.112,0.5
12.12,0.5
12.128,0.4902
12.136,0.48431
12.144,0.5
12.152,0.5
12.16,0.51569
12.168,0.51961
12.176,0.51961
12.184,0.52549
12.192,0.53529
12.2,0.52941
12.208,0.51961
12.216,0.5098
12.224,0.5098
12.232,0.5
12.24,0.5098
12.248,0.51961
12.256,0.53529
12.264,0.52549
12.272,0.51961
12.28,0.51961
12.288,0.52941
12.296,0.52549
12.304,0.51961
12.312,0.52549
12.32,0.51961
12.328,0.51961
12.336,0.53922
12.344,0.55098
12.352,0.57059
12.36,0.58431
12.368,0.57059
12.376,0.53922
12.384,0.5
12.392,0.48431
12.4,0.47059
12.408,0.46471
12.416,0.46078
12.424,0.47059
12.432,0.47059
12.44,0.47451
12.448,0.47059
12.456,0.47451
12.464,0.47451
12.472,0.57059
12.48,0.58431
12.488,0.22353
12.496,-0.38824
12.504,-0.50196
12.512,0.043137
12.52,0.39412
12.528,0.4549
12.536,0.48039
12.544,0.49412
12.552,0.51569
12.56,0.51961
12.568,0.51961
12.576,0.51569
12.584,0.5
12.592,0.4902
12.6,0.48039
12.608,0.4902
12.616,0.4902
12.624,0.49412
12.632,0.48039
12.64,0.48039
12.648,0.48431
12.656,0.48431
12.664,0.4902
12.672,0.48039
12.68,0.47059
12.688,0.4549
12.696,0.46078
12.704,0.48039
12.712,0.4902
12.72,0.5098
12.728,0.51569
12.736,0.51961
12.744,0.5098
12.752,0.5
12.76,0.49412
12.768,0.48431
12.776,0.47451
12.784,0.46078
12.792,0.47451
12.8,0.44902
12.808,0.42549
12.816,0.4098
12.824,0.41961
12.832,0.43922
12.84,0.48039
12.848,0.51569
12.856,0.56471
12.864,0.59608
12.872,0.6098
12.88,0.58431
12.888,0.56471
12.896,0.57059
12.904,0.53922
12.912,0.51569
12.92,0.5098
12.928,0.49412
12.936,0.48039
12.944,0.46471
12.952,0.47451
12.96,0.47059
12.968,0.47451
12.976,0.5
12.984,0.5451
12.992,0.57059
13,0.60588
13.008,0.61569
13.016,0.60588
13.024,0.58431
13.032,0.57059
13.04,0.58431
13.048,0.57059
13.056,0.5549
13.064,0.5451
13.072,0.53922
13.08,0.51961
13.088,0.4902
13.096,0.47059
13.104,0.5
13.112,0.56078
13.12,0.4098
13.128,-0.076471
13.136,-0.50196
13.144,-0.21176
13.152,0.3451
13.16,0.5549
13.168,0.59608
13.176,0.62549
13.184,0.64118
13.192,0.64118
13.2,0.64118
13.208,0.61961
13.216,0.57451
13.224,0.53922
13.232,0.50588
13.24,0.49412
13.248,0.47451
13.256,0.4549
13.264,0.43922
13.272,0.43529
13.28,0.43922
13.288,0.44902
13.296,0.46471
13.304,0.47451
13.312,0.46471
13.32,0.46078
13.328,0.44902
13.336,0.4549
13.344,0.47059
13.352,0.4902
13.36,0.50588
13.368,0.52549
13.376,0.5451
13.384,0.56471
13.392,0.58431
13.4,0.58431
13.408,0.5902
13.416,0.59608
13.424,0.60588
13.432,0.5902
13.44,0.5902
13.448,0.5902
13.456,0.5902
13.464,0.58039
13.472,0.58039
13.48,0.57451
13.488,0.5902
13.496,0.5902
13.504,0.6
13.512,0.59608
13.52,0.59608
13.528,0.5902
13.536,0.58431
13.544,0.57451
13.552,0.57059
13.56,0.56078
13.568,0.5451
13.576,0.53922
13.584,0.53529
13.592,0.53922
13.6,0.51961
13.608,0.51961
13.616,0.52941
13.624,0.55098
13.632,0.57059
13.64,0.58431
13.648,0.57059
13.656,0.5451
13.664,0.50588
13.672,0.48431
13.68,0.46078
13.688,0.4549
13.696,0.44902
13.704,0.46078
13.712,0.46471
13.72,0.47451
13.728,0.47059
13.736,0.46471
13.744,0.47059
13.752,0.57451
13.76,0.58431
13.768,0.18431
13.776,-0.50196
13.784,-0.50196
13.792,-0.047059
13.8,0.31373
13.808,0.41569
13.816,0.44902
13.824,0.48431
13.832,0.50588
13.84,0.51569
13.848,0.4902
13.856,0.48431
13.864,0.47451
13.872,0.47451
13.88,0.47451
13.888,0.48039
13.896,0.47059
13.904,0.4549
13.912,0.46078
13.92,0.47059
13.928,0.47451
13.936,0.47059
13.944,0.47451
13.952,0.47451
13.96,0.47059
13.968,0.47059
13.976,0.46471
13.984,0.46078
13.992,0.46471
14,0.4549
14.008,0.47059
14.016,0.47059
14.024,0.47451
14.032,0.47059
14.04,0.47451
14.048,0.46471
14.056,0.47059
14.064,0.46471
14.072,0.47451
14.08,0.47451
14.088,0.49412
14.096,0.49412
14.104,0.5098
14.112,0.5098
14.12,0.51961
14.128,0.51569
14.136,0.51961
14.144,0.51569
14.152,0.51569
14.16,0.5098
14.168,0.51569
14.176,0.51569
14.184,0.51569
14.192,0.50588
14.2,0.4902
14.208,0.48039
14.216,0.48039
14.224,0.48431
14.232,0.47451
14.24,0.48431
14.248,0.48039
14.256,0.5
14.264,0.51961
14.272,0.5451
14.28,0.5451
14.288,0.55098
14.296,0.5098
14.304,0.5
14.312,0.48039
14.32,0.46078
14.328,0.44902
14.336,0.4549
14.344,0.46471
14.352,0.47451
14.36,0.48431
14.368,0.48039
14.376,0.48039
14.384,0.47451
14.392,0.58039
14.4,0.6098
14.408,0.29412
14.416,-0.43333
14.424,-0.50196
14.432,-0.17255
14.44,0.26863
14.448,0.3902
14.456,0.4549
14.464,0.49412
14.472,0.51961
14.48,0.52549
14.488,0.51569
14.496,0.5098
14.504,0.5
14.512,0.4902
14.52,0.48431
14.528,0.5
14.536,0.51961
14.544,0.50588
14.552,0.5098
14.56,0.5
14.568,0.50588
14.576,0.50588
14.584,0.5
14.592,0.50588
14.6,0.5
14.608,0.50588
14.616,0.50588
14.624,0.5098
14.632,0.51569
14.64,0.51961
14.648,0.51961
14.656,0.53529
14.664,0.51961
14.672,0.51569
14.68,0.50588
14.688,0.5
14.696,0.5
14.704,0.50588
14.712,0.5098
14.72,0.5098
14.728,0.51569
14.736,0.51961
14.744,0.51961
14.752,0.52941
14.76,0.53529
14.768,0.52549
14.776,0.52549
14.784,0.51961
14.792,0.51569
14.8,0.51569
14.808,0.51961
14.816,0.51961
14.824,0.51961
14.832,0.51569
14.84,0.51569
14.848,0.5098
14.856,0.51569
14.864,0.51569
14.872,0.51961
14.88,0.51569
14.888,0.51569
14.896,0.51961
14.904,0.55098
14.912,0.56078
14.92,0.57059
14.928,0.56078
14.936,0.53922
14.944,0.50588
14.952,0.4902
14.96,0.46078
14.968,0.47059
14.976,0.47059
14.984,0.47451
14.992,0.4902
15,0.49412
15.008,0.48431
15.016,0.48431
15.024,0.49412
15.032,0.6
15.04,0.61569
15.048,0.20392
15.056,-0.49804
15.064,-0.50196
15.072,-0.027451
15.08,0.32941
15.088,0.43529
15.096,0.48039
15.104,0.51569
15.112,0.52941
15.12,0.55098
15.128,0.53922
15.136,0.53529
15.144,0.52549
15.152,0.51961
15.16,0.50588
15.168,0.51961
15.176,0.52549
15.184,0.51961
15.192,0.51569
15.2,0.51961
15.208,0.51961
15.216,0.51961
15.224,0.51961
15.232,0.51569
15.24,0.51961
15.248,0.5098
15.256,0.51961
15.264,0.51961
15.272,0.52549
15.28,0.51961
15.288,0.52941
15.296,0.51961
15.304,0.51961
15.312,0.5
15.32,0.5
15.328,0.4902
15.336,0.49412
15.344,0.48431
15.352,0.5
15.36,0.50588
15.368,0.5098
15.376,0.51569
15.384,0.5098
15.392,0.51569
15.4,0.51961
15.408,0.51961
15.416,0.52549
15.424,0.53529
15.432,0.53529
15.44,0.53922
15.448,0.53529
15.456,0.5451
15.464,0.5549
15.472,0.56078
15.48,0.56078
15.488,0.56471
15.496,0.5549
15.504,0.5549
15.512,0.53922
15.52,0.53922
15.528,0.5451
15.536,0.56471
15.544,0.58431
15.552,0.60588
15.56,0.6098
15.568,0.5902
15.576,0.57059
15.584,0.53529
15.592,0.51569
15.6,0.5
15.608,0.5
15.616,0.5
15.624,0.5098
15.632,0.51569
15.64,0.51961
15.648,0.5098
15.656,0.50588
15.664,0.53529
15.672,0.61569
15.68,0.47451
15.688,-0.031373
15.696,-0.50196
15.704,-0.25294
15.712,0.26471
15.72,0.4451
15.728,0.47451
15.736,0.5098
15.744,0.51961
15.752,0.53529
15.76,0.53922
15.768,0.52549
15.776,0.51569
15.784,0.51569
15.792,0.50588
15.8,0.5
15.808,0.50588
15.816,0.50588
15.824,0.49412
15.832,0.4902
15.84,0.5
15.848,0.49412
15.856,0.50588
15.864,0.5
15.872,0.48431
15.88,0.47451
15.888,0.47451
15.896,0.46078
15.904,0.46471
15.912,0.4549
15.92,0.46078
15.928,0.46078
15.936,0.47059
15.944,0.46471
15.952,0.47059
15.96,0.46471
15.968,0.47451
15.976,0.48039
15.984,0.5
15.992,0.50588
16,0.51961
16.008,0.52549
16.016,0.5098
16.024,0.5
16.032,0.49412
16.04,0.4902
16.048,0.4902
16.056,0.5
16.064,0.5
16.072,0.5098
16.08,0.50588
16.088,0.5098
16.096,0.5
16.104,0.5
16.112,0.5
16.12,0.5
16.128,0.5
16.136,0.50588
16.144,0.5
16.152,0.51569
16.16,0.5098
16.168,0.53922
16.176,0.5549
16.184,0.57451
16.192,0.5902
16.2,0.57451
16.208,0.55098
16.216,0.52549
16.224,0.51961
16.232,0.5098
16.24,0.51569
16.248,0.51961
16.256,0.53922
16.264,0.5451
16.272,0.5451
16.28,0.53922
16.288,0.5451
16.296,0.56078
16.304,0.63529
16.312,0.52941
16.32,0.10392
16.328,-0.45294
16.336,-0.48824
16.344,0.22353
16.352,0.48431
16.36,0.52941
16.368,0.56078
16.376,0.57059
16.384,0.57451
16.392,0.58431
16.4,0.57059
16.408,0.53922
16.416,0.52549
16.424,0.52549
16.432,0.53529
16.44,0.5451
16.448,0.52941
16.456,0.51961
16.464,0.50588
16.472,0.51569
16.48,0.51961
16.488,0.51569
16.496,0.5
16.504,0.49412
16.512,0.48039
16.52,0.47451
16.528,0.47059
16.536,0.47059
16.544,0.4549
16.552,0.46471
16.56,0.46471
16.568,0.46471
16.576,0.46471
16.584,0.47059
16.592,0.46471
16.6,0.48039
16.608,0.4902
16.616,0.5
16.624,0.5098
16.632,0.51961
16.64,0.52941
16.648,0.51961
16.656,0.51569
16.664,0.51569
16.672,0.52549
16.68,0.51961
16.688,0.51961
16.696,0.51961
16.704,0.51961
16.712,0.51569
16.72,0.51961
16.728,0.5098
16.736,0.51569
16.744,0.50588
16.752,0.51569
16.76,0.5098
16.768,0.51569
16.776,0.51569
16.784,0.52549
16.792,0.51961
16.8,0.51961
16.808,0.53922
16.816,0.57059
16.824,0.58039
16.832,0.5902
16.84,0.57451
16.848,0.5549
16.856,0.52549
16.864,0.5
16.872,0.48039
16.88,0.46471
16.888,0.48039
16.896,0.48039
16.904,0.49412
16.912,0.49412
16.92,0.5
16.928,0.5
16.936,0.51569
16.944,0.61569
16.952,0.61961
16.96,0.12353
16.968,-0.50196
16.976,-0.50196
16.984,-0.0019608
16.992,0.33529
17,0.43529
17.008,0.48039
17.016,0.51569
17.024,0.53922
17.032,0.5451
17.04,0.53922
17.048,0.52941
17.056,0.52549
17.064,0.51961
17.072,0.51961
17.08,0.53922
17.088,0.52941
17.096,0.51961
17.104,0.52549
17.112,0.52549
17.12,0.52941
17.128,0.52549
17.136,0.52941
17.144,0.51961
17.152,0.51961
17.16,0.51569
17.168,0.51961
17.176,0.52549
17.184,0.52941
17.192,0.52549
17.2,0.53529
17.208,0.52941
17.216,0.52549
17.224,0.51569
17.232,0.5098
17.24,0.5
17.248,0.5
17.256,0.5
17.264,0.5
17.272,0.5098
17.28,0.50588
17.288,0.51961
17.296,0.51961
17.304,0.51961
17.312,0.51569
17.32,0.51961
17.328,0.5098
17.336,0.51961
17.344,0.51961
17.352,0.52549
17.36,0.51961
17.368,0.51961
17.376,0.51961
17.384,0.51961
17.392,0.51569
17.4,0.51961
17.408,0.51569
17.416,0.51961
17.424,0.51961
17.432,0.52549
17.44,0.52941
17.448,0.5451
17.456,0.57059
17.464,0.58039
17.472,0.5902
17.48,0.57059
17.488,0.5549
17.496,0.52549
17.504,0.5098
17.512,0.48431
17.52,0.48431
17.528,0.48431
17.536,0.5
17.544,0.50588
17.552,0.5098
17.56,0.5
17.568,0.5098
17.576,0.52941
17.584,0.62549
17.592,0.51569
17.6,0.04902
17.608,-0.50196
17.616,-0.47255
17.624,0.094118
17.632,0.37451
17.64,0.4451
17.648,0.48039
17.656,0.50588
17.664,0.52941
17.672,0.5451
17.68,0.52941
17.688,0.51961
17.696,0.51569
17.704,0.5098
17.712,0.51569
17.72,0.52941
17.728,0.53529
17.736,0.53922
17.744,0.53529
17.752,0.53529
17.76,0.53529
17.768,0.53529
17.776,0.52941
17.784,0.53529
17.792,0.53529
17.8,0.53922
17.808,0.52941
17.816,0.53922
17.824,0.53529
17.832,0.53922
17.84,0.51961
17.848,0.5098
17.856,0.50588
17.864,0.5
17.872,0.49412
17.88,0.49412
17.888,0.5
17.896,0.50588
17.904,0.51569
17.912,0.51961
17.92,0.52941
17.928,0.52549
17.936,0.53529
17.944,0.51961
17.952,0.51961
17.96,0.51569
17.968,0.51961
17.976,0.5098
17.984,0.5098
17.992,0.50588
18,0.51569
18.008,0.51569
18.016,0.51961
18.024,0.5098
18.032,0.50588
18.04,0.5098
18.048,0.5098
18.056,0.5098
18.064,0.50588
18.072,0.51569
18.08,0.52549
18.088,0.55098
18.096,0.56471
18.104,0.57059
18.112,0.5451
18.12,0.51961
18.128,0.4902
18.136,0.47451
18.144,0.4549
18.152,0.46078
18.16,0.44902
18.168,0.46471
18.176,0.47451
18.184,0.47451
18.192,0.47451
18.2,0.47059
18.208,0.48431
18.216,0.5902
18.224,0.49412
18.232,0.068627
18.24,-0.50196
18.248,-0.35686
18.256,0.17843
18.264,0.41961
18.272,0.44902
18.28,0.47059
18.288,0.48431
18.296,0.5
18.304,0.50588
18.312,0.5
18.32,0.4902
18.328,0.47451
18.336,0.47451
18.344,0.47451
18.352,0.48039
18.36,0.47451
18.368,0.47059
18.376,0.46471
18.384,0.46471
18.392,0.47451
18.4,0.47451
18.408,0.46471
18.416,0.44902
18.424,0.43922
18.432,0.42549
18.44,0.42941
18.448,0.42549
18.456,0.41961
18.464,0.42549
18.472,0.42941
18.48,0.43922
18.488,0.4549
18.496,0.46471
18.504,0.48039
18.512,0.49412
18.52,0.5098
18.528,0.51961
18.536,0.53922
18.544,0.5451
18.552,0.5549
18.56,0.5451
18.568,0.55098
18.576,0.5451
18.584,0.53529
18.592,0.51961
18.6,0.53922
18.608,0.56078
18.616,0.58431
18.624,0.59608
18.632,0.60588
18.64,0.61569
18.648,0.6
18.656,0.58039
18.664,0.57059
18.672,0.56471
18.68,0.56078
18.688,0.56471
18.696,0.56078
18.704,0.57059
18.712,0.58431
18.72,0.6098
18.728,0.62549
18.736,0.64118
18.744,0.63529
18.752,0.6098
18.76,0.56471
18.768,0.5451
18.776,0.52941
18.784,0.52941
18.792,0.52549
18.8,0.53529
18.808,0.53922
18.816,0.5451
18.824,0.52941
18.832,0.51961
18.84,0.51569
18.848,0.6
18.856,0.64118
18.864,0.3902
18.872,-0.28824
18.88,-0.50196
18.888,-0.16275
18.896,0.31373
18.904,0.44902
18.912,0.48039
18.92,0.51569
18.928,0.53529
18.936,0.5451
18.944,0.53529
18.952,0.52549
18.96,0.50588
18.968,0.5
18.976,0.50588
18.984,0.51961
18.992,0.5098
19,0.5
19.008,0.48431
19.016,0.49412
19.024,0.4902
19.032,0.4902
19.04,0.48431
19.048,0.48039
19.056,0.48431
19.064,0.47059
19.072,0.47451
19.08,0.47451
19.088,0.48039
19.096,0.47451
19.104,0.4902
19.112,0.48431
19.12,0.5
19.128,0.49412
19.136,0.4902
19.144,0.48039
19.152,0.48431
19.16,0.48039
19.168,0.49412
19.176,0.49412
19.184,0.50588
19.192,0.5098
19.2,0.5098
19.208,0.50588
19.216,0.5
19.224,0.50588
19.232,0.50588
19.24,0.5
19.248,0.5
19.256,0.50588
19.264,0.5098
19.272,0.5098
19.28,0.50588
19.288,0.5
19.296,0.5
19.304,0.5
19.312,0.5
19.32,0.5098
19.328,0.5098
19.336,0.51569
19.344,0.51961
19.352,0.52941
19.36,0.55098
19.368,0.57451
19.376,0.58039
19.384,0.5902
19.392,0.55098
19.4,0.53529
19.408,0.50588
19.416,0.4902
19.424,0.46471
19.432,0.47059
19.44,0.47451
19.448,0.4902
19.456,0.5
19.464,0.5
19.472,0.49412
19.48,0.4902
19.488,0.56471
19.496,0.6098
19.504,0.37451
19.512,-0.30196
19.52,-0.50196
19.528,-0.26275
19.536,0.23333
19.544,0.39412
19.552,0.46078
19.56,0.5
19.568,0.52941
19.576,0.5451
19.584,0.5451
19.592,0.53529
19.6,0.53922
19.608,0.51961
19.616,0.51961
19.624,0.53529
19.632,0.5451
19.64,0.53529
19.648,0.52941
19.656,0.52549
19.664,0.51961
19.672,0.52941
19.68,0.52549
19.688,0.52941
19.696,0.52549
19.704,0.53922
19.712,0.53529
19.72,0.53922
19.728,0.5451
19.736,0.5451
19.744,0.5451
19.752,0.55098
19.76,0.53922
19.768,0.53529
19.776,0.52549
19.784,0.52549
19.792,0.51569
19.8,0.51961
19.808,0.51961
19.816,0.52549
19.824,0.52549
19.832,0.51961
19.84,0.52549
19.848,0.52941
19.856,0.51961
19.864,0.51961
19.872,0.51569
19.88,0.51961
19.888,0.51569
19.896,0.51569
19.904,0.51961
19.912,0.5098
19.92,0.51569
19.928,0.5098
19.936,0.51569
19.944,0.51569
19.952,0.51569
19.96,0.51961
19.968,0.51961
19.976,0.51961
19.984,0.51961
19.992,0.53922
20,0.56471
20.008,0.5902
20.016,0.5902
20.024,0.58039
20.032,0.56078
20.04,0.52549
20.048,0.50588
20.056,0.4902
20.064,0.48039
20.072,0.47451
20.08,0.48431
20.088,0.5
20.096,0.50588
20.104,0.5098
20.112,0.5
20.12,0.5
20.128,0.58039
20.136,0.61961
20.144,0.37059
20.152,-0.26667
20.16,-0.50196
20.168,-0.12157
20.176,0.32941
20.184,0.4451
20.192,0.46471
20.2,0.49412
20.208,0.51961
20.216,0.52941
20.224,0.51569
20.232,0.5098
20.24,0.51569
20.248,0.51961
20.256,0.50588
20.264,0.51569
20.272,0.50588
20.28,0.5
20.288,0.5
20.296,0.5
20.304,0.5098
20.312,0.50588
20.32,0.5098
20.328,0.5
20.336,0.49412
20.344,0.48431
20.352,0.4902
20.36,0.47059
20.368,0.46471
20.376,0.46078
20.384,0.46471
20.392,0.46471
20.4,0.47451
20.408,0.47059
20.416,0.47451
20.424,0.47059
20.432,0.47451
20.44,0.48431
20.448,0.5
20.456,0.5098
20.464,0.51961
20.472,0.51961
20.48,0.51569
20.488,0.50588
20.496,0.5
20.504,0.50588
20.512,0.5
20.52,0.50588
20.528,0.5
20.536,0.50588
20.544,0.5
20.552,0.50588
20.56,0.5098
20.568,0.5
20.576,0.5
20.584,0.50588
20.592,0.5
20.6,0.5
20.608,0.50588
20.616,0.5
20.624,0.51569
20.632,0.5451
20.64,0.55098
20.648,0.57451
20.656,0.56471
20.664,0.5451
20.672,0.5
20.68,0.46078
20.688,0.43922
20.696,0.41961
20.704,0.42549
20.712,0.43529
20.72,0.44902
20.728,0.44902
20.736,0.44902
20.744,0.44902
20.752,0.44902
20.76,0.51569
20.768,0.56471
20.776,0.4
20.784,-0.16275
20.792,-0.50196
20.8,-0.19608
20.808,0.3
20.816,0.46471
20.824,0.48431
20.832,0.51569
20.84,0.52941
20.848,0.53529
20.856,0.52549
20.864,0.52941
20.872,0.53529
20.88,0.52941
20.888,0.5451
20.896,0.55098
20.904,0.56078
20.912,0.5451
20.92,0.52941
20.928,0.52549
20.936,0.52549
20.944,0.52549
20.952,0.52941
20.96,0.51961
20.968,0.51569
20.976,0.5
20.984,0.5
20.992,0.4902
21,0.48431
21.008,0.47451
21.016,0.48039
21.024,0.48039
21.032,0.4902
21.04,0.5
21.048,0.5098
21.056,0.5098
21.064,0.51961
21.072,0.51961
21.08,0.52549
21.088,0.53529
21.096,0.5451
21.104,0.5451
21.112,0.53922
21.12,0.5451
21.128,0.53922
21.136,0.5451
21.144,0.53529
21.152,0.53922
21.16,0.52941
21.168,0.52549
21.176,0.51961
21.184,0.51961
21.192,0.51961
21.2,0.51569
21.208,0.5
21.216,0.5098
21.224,0.51569
21.232,0.51961
21.24,0.5098
21.248,0.51569
21.256,0.51961
21.264,0.5098
21.272,0.52941
21.28,0.5549
21.288,0.57059
21.296,0.57451
21.304,0.56471
21.312,0.53922
21.32,0.51961
21.328,0.5
21.336,0.48039
21.344,0.47059
21.352,0.47451
21.36,0.48039
21.368,0.49412
21.376,0.5
21.384,0.5
21.392,0.5
21.4,0.5098
21.408,0.6098
21.416,0.62549
21.424,0.18824
21.432,-0.50196
21.44,-0.50196
21.448,-0.056863
21.456,0.31373
21.464,0.42941
21.472,0.48039
21.48,0.51961
21.488,0.5451
21.496,0.55098
21.504,0.53922
21.512,0.52941
21.52,0.51961
21.528,0.51569
21.536,0.51961
21.544,0.53922
21.552,0.5451
21.56,0.53529
21.568,0.53922
21.576,0.53529
21.584,0.5451
21.592,0.52941
21.6,0.53529
21.608,0.53922
21.616,0.52941
21.624,0.52941
21.632,0.5451
21.64,0.5451
21.648,0.56078
21.656,0.56471
21.664,0.57059
21.672,0.56078
21.68,0.56078
21.688,0.5451
21.696,0.53529
21.704,0.52549
21.712,0.52941
21.72,0.52549
21.728,0.52941
21.736,0.53529
21.744,0.53922
21.752,0.53529
21.76,0.53922
21.768,0.5451
21.776,0.53922
21.784,0.5451
21.792,0.5451
21.8,0.55098
21.808,0.5451
21.816,0.5451
21.824,0.53922
21.832,0.53529
21.84,0.52549
21.848,0.53529
21.856,0.52941
21.864,0.52549
21.872,0.52941
21.88,0.52549
21.888,0.53529
21.896,0.52549
21.904,0.52549
21.912,0.55098
21.92,0.57059
21.928,0.5902
21.936,0.6098
21.944,0.5902
21.952,0.57059
21.96,0.53529
21.968,0.5098
21.976,0.48431
21.984,0.48431
21.992,0.48039
22,0.5
22.008,0.5098
22.016,0.51961
22.024,0.51569
22.032,0.51569
22.04,0.51569
22.048,0.62549
22.056,0.64118
22.064,0.26863
22.072,-0.45686
22.08,-0.50196
22.088,-0.056863
22.096,0.33529
22.104,0.43529
22.112,0.48431
22.12,0.51569
22.128,0.53922
22.136,0.56078
22.144,0.5549
22.152,0.5451
22.16,0.53529
22.168,0.53922
22.176,0.52941
22.184,0.5451
22.192,0.5451
22.2,0.5549
22.208,0.5451
22.216,0.56078
22.224,0.56078
22.232,0.56471
22.24,0.57059
22.248,0.56078
22.256,0.56471
22.264,0.56078
22.272,0.56078
22.28,0.5549
22.288,0.56078
22.296,0.56078
22.304,0.5549
22.312,0.55098
22.32,0.53529
22.328,0.51961
22.336,0.5098
22.344,0.5
22.352,0.50588
22.36,0.5
22.368,0.51961
22.376,0.53529
22.384,0.55098
22.392,0.5451
22.4,0.5549
22.408,0.53922
22.416,0.53529
22.424,0.51961
22.432,0.52549
22.44,0.51961
22.448,0.52549
22.456,0.52941
22.464,0.51961
22.472,0.51569
22.48,0.51961
22.488,0.51569
22.496,0.51569
22.504,0.51961
22.512,0.51961
22.52,0.51569
22.528,0.51961
22.536,0.51961
22.544,0.52549
22.552,0.5451
22.56,0.56078
22.568,0.57451
22.576,0.56471
22.584,0.5451
22.592,0.5098
22.6,0.4902
22.608,0.47451
22.616,0.46078
22.624,0.4549
22.632,0.46471
22.64,0.47451
22.648,0.48039
22.656,0.47451
22.664,0.47451
22.672,0.46471
22.68,0.52941
22.688,0.57451
22.696,0.39412
22.704,-0.19608
22.712,-0.50196
22.72,-0.18235
22.728,0.3098
22.736,0.44902
22.744,0.46078
22.752,0.48039
22.76,0.49412
22.768,0.50588
22.776,0.5
22.784,0.5098
22.792,0.48431
22.8,0.4902
22.808,0.47451
22.816,0.48431
22.824,0.48039
22.832,0.48431
22.84,0.47451
22.848,0.47451
22.856,0.47451
22.864,0.47451
22.872,0.46471
22.88,0.4549
22.888,0.4451
22.896,0.43922
22.904,0.42549
22.912,0.41961
22.92,0.4098
22.928,0.41569
22.936,0.41569
22.944,0.41961
22.952,0.42549
22.96,0.4451
22.968,0.4549
22.976,0.47059
22.984,0.48431
22.992,0.49412
23,0.5098
23.008,0.51961
23.016,0.52941
23.024,0.52941
23.032,0.53529
23.04,0.52549
23.048,0.51961
23.056,0.51961
23.064,0.53529
23.072,0.5451
23.08,0.53529
23.088,0.51961
23.096,0.53529
23.104,0.5549
23.112,0.57059
23.12,0.57451
23.128,0.57059
23.136,0.58431
23.144,0.57451
23.152,0.57059
23.16,0.57059
23.168,0.57451
23.176,0.57059
23.184,0.58431
23.192,0.6
23.2,0.63529
23.208,0.64118
23.216,0.63529
23.224,0.60588
23.232,0.57451
23.24,0.5451
23.248,0.52549
23.256,0.51569
23.264,0.51961
23.272,0.52941
23.28,0.55098
23.288,0.5451
23.296,0.5451
23.304,0.52941
23.312,0.5451
23.32,0.65098
23.328,0.6549
23.336,0.24902
23.344,-0.43333
23.352,-0.50196
23.36,0.0078431
23.368,0.37451
23.376,0.46078
23.384,0.49412
23.392,0.51569
23.4,0.53529
23.408,0.5451
23.416,0.53529
23.424,0.51569
23.432,0.50588
23.44,0.5
23.448,0.51569
23.456,0.51961
23.464,0.51569
23.472,0.5
23.48,0.49412
23.488,0.4902
23.496,0.49412
23.504,0.4902
23.512,0.48431
23.52,0.48039
23.528,0.48431
23.536,0.48039
23.544,0.48039
23.552,0.48431
23.56,0.48039
23.568,0.48431
23.576,0.49412
23.584,0.5
23.592,0.5
23.6,0.5
23.608,0.5
23.616,0.5
23.624,0.4902
23.632,0.5
23.64,0.5
23.648,0.51961
23.656,0.51961
23.664,0.52941
23.672,0.52549
23.68,0.52549
23.688,0.51961
23.696,0.52549
23.704,0.51961
23.712,0.51569
23.72,0.51961
23.728,0.51569
23.736,0.51961
23.744,0.51961
23.752,0.51569
23.76,0.51569
23.768,0.5098
23.776,0.5
23.784,0.51569
23.792,0.5098
23.8,0.51569
23.808,0.50588
23.816,0.50588
23.824,0.51961
23.832,0.5549
23.84,0.57059
23.848,0.5902
23.856,0.56471
23.864,0.5549
23.872,0.52549
23.88,0.50588
23.888,0.47451
23.896,0.47059
23.904,0.47451
23.912,0.4902
23.92,0.5
23.928,0.50588
23.936,0.5
23.944,0.5
23.952,0.5098
23.96,0.61569
23.968,0.63529
23.976,0.2549
23.984,-0.47255
23.992,-0.50196
24,-0.072549
24.008,0.31373
24.016,0.42549
24.024,0.48039
24.032,0.51961
24.04,0.53922
24.048,0.55098
24.056,0.5451
24.064,0.52941
24.072,0.52549
24.08,0.51569
24.088,0.51569
24.096,0.52549
24.104,0.53529
24.112,0.52549
24.12,0.51569
24.128,0.51961
24.136,0.51961
24.144,0.51961
24.152,0.51961
24.16,0.51569
24.168,0.51569
24.176,0.51961
24.184,0.52941
24.192,0.52941
24.2,0.53529
24.208,0.53529
24.216,0.5451
24.224,0.53922
24.232,0.53529
24.24,0.51961
24.248,0.51569
24.256,0.5098
24.264,0.51569
24.272,0.51569
24.28,0.51961
24.288,0.51569
24.296,0.51961
24.304,0.52549
24.312,0.53529
24.32,0.52549
24.328,0.52941
24.336,0.53529
24.344,0.52941
24.352,0.52549
24.36,0.52549
24.368,0.52549
24.376,0.51961
24.384,0.52941
24.392,0.51961
24.4,0.51961
24.408,0.51961
24.416,0.52549
24.424,0.51961
24.432,0.51961
24.44,0.51961
24.448,0.51961
24.456,0.51961
24.464,0.53922
24.472,0.56078
24.48,0.58039
24.488,0.58431
24.496,0.57059
24.504,0.5451
24.512,0.51961
24.52,0.49412
24.528,0.47059
24.536,0.4549
24.544,0.4549
24.552,0.47059
24.56,0.48039
24.568,0.4902
24.576,0.48039
24.584,0.48431
24.592,0.47451
24.6,0.59608
24.608,0.60588
24.616,0.18431
24.624,-0.49804
24.632,-0.50196
24.64,0.033333
24.648,0.37059
24.656,0.44902
24.664,0.4902
24.672,0.51569
24.68,0.5451
24.688,0.56471
24.696,0.56078
24.704,0.5451
24.712,0.5451
24.72,0.5451
24.728,0.53922
24.736,0.5451
24.744,0.5451
24.752,0.53529
24.76,0.52941
24.768,0.53529
24.776,0.53922
24.784,0.53529
24.792,0.53529
24.8,0.53529
24.808,0.51961
24.816,0.51961
24.824,0.51961
24.832,0.51961
24.84,0.51961
24.848,0.51569
24.856,0.50588
24.864,0.5
24.872,0.49412
24.88,0.4902
24.888,0.48431
24.896,0.48431
24.904,0.48431
24.912,0.49412
24.92,0.52941
24.928,0.5451
24.936,0.5451
24.944,0.5451
24.952,0.5451
24.96,0.52941
24.968,0.53529
24.976,0.52549
24.984,0.52941
24.992,0.51961
25,0.51961
25.008,0.51569
25.016,0.5098
25.024,0.51961
25.032,0.51569
25.04,0.5098
25.048,0.50588
25.056,0.5098
25.064,0.50588
25.072,0.51569
25.08,0.50588
25.088,0.5
25.096,0.5098
25.104,0.51961
25.112,0.55098
25.12,0.57059
25.128,0.56078
25.136,0.53922
25.144,0.50588
25.152,0.4902
25.16,0.46471
25.168,0.4549
25.176,0.44902
25.184,0.4549
25.192,0.46471
25.2,0.47451
25.208,0.47059
25.216,0.47059
25.224,0.47059
25.232,0.52941
25.24,0.58039
25.248,0.38039
25.256,-0.18627
25.264,-0.50196
25.272,-0.15686
25.28,0.3
25.288,0.44902
25.296,0.47059
25.304,0.49412
25.312,0.5098
25.32,0.51961
25.328,0.51961
25.336,0.5098
25.344,0.48431
25.352,0.48039
25.36,0.48431
25.368,0.48039
25.376,0.4902
25.384,0.48039
25.392,0.47059
25.4,0.47451
25.408,0.47451
25.416,0.47451
25.424,0.48039
25.432,0.47451
25.44,0.46078
25.448,0.44902
25.456,0.44902
25.464,0.44902
25.472,0.4451
25.48,0.44902
25.488,0.44902
25.496,0.4549
25.504,0.47059
25.512,0.47451
25.52,0.47059
25.528,0.4549
25.536,0.48431
25.544,0.51569
25.552,0.55098
25.56,0.57059
25.568,0.5902
25.576,0.5902
25.584,0.58431
25.592,0.57059
25.6,0.57059
25.608,0.56471
25.616,0.56078
25.624,0.56471
25.632,0.57059
25.64,0.57059
25.648,0.57451
25.656,0.58039
25.664,0.58431
25.672,0.58039
25.68,0.56471
25.688,0.56078
25.696,0.55098
25.704,0.5549
25.712,0.55098
25.72,0.55098
25.728,0.55098
25.736,0.56471
25.744,0.58039
25.752,0.60588
25.76,0.6098
25.768,0.61569
25.776,0.57451
25.784,0.55098
25.792,0.52549
25.8,0.5098
25.808,0.5
25.816,0.5
25.824,0.5
25.832,0.51569
25.84,0.51569
25.848,0.51961
25.856,0.5
25.864,0.5
25.872,0.58431
25.88,0.62549
25.888,0.39412
25.896,-0.27647
25.904,-0.50196
25.912,-0.20784
25.92,0.28431
25.928,0.42549
25.936,0.47059
25.944,0.49412
25.952,0.51961
25.96,0.52941
25.968,0.51961
25.976,0.50588
25.984,0.5
25.992,0.48431
26,0.5
26.008,0.5098
26.016,0.5098
26.024,0.49412
26.032,0.48431
26.04,0.49412
26.048,0.49412
26.056,0.4902
26.064,0.49412
26.072,0.49412
26.08,0.48431
26.088,0.48431
26.096,0.48039
26.104,0.4902
26.112,0.4902
26.12,0.5
26.128,0.5
26.136,0.50588
26.144,0.49412
26.152,0.5
26.16,0.4902
26.168,0.48431
26.176,0.47451
26.184,0.48039
26.192,0.48431
26.2,0.49412
26.208,0.5
26.216,0.5
26.224,0.50588
26.232,0.5098
26.24,0.51569
26.248,0.50588
26.256,0.5098
26.264,0.5
26.272,0.5098
26.28,0.50588
26.288,0.51569
26.296,0.5
26.304,0.5
26.312,0.5
26.32,0.5
26.328,0.5
26.336,0.5
26.344,0.5
26.352,0.50588
26.36,0.50588
26.368,0.50588
26.376,0.5
26.384,0.52941
26.392,0.55098
26.4,0.57059
26.408,0.57451
26.416,0.5549
26.424,0.53922
26.432,0.50588
26.44,0.48039
26.448,0.4549
26.456,0.44902
26.464,0.44902
26.472,0.46471
26.48,0.47451
26.488,0.48431
26.496,0.48039
26.504,0.4902
26.512,0.48431
26.52,0.61961
26.528,0.52549
26.536,0.068627
26.544,-0.50196
26.552,-0.50196
26.56,0.058824
26.568,0.3549
26.576,0.43922
26.584,0.48431
26.592,0.5098
26.6,0.53529
26.608,0.53922
26.616,0.52941
26.624,0.51961
26.632,0.51961
26.64,0.51569
26.648,0.51961
26.656,0.52941
26.664,0.52549
26.672,0.51961
26.68,0.51569
26.688,0.51961
26.696,0.51961
26.704,0.52549
26.712,0.51961
26.72,0.52549
26.728,0.52549
26.736,0.52941
26.744,0.52549
26.752,0.53922
26.76,0.5451
26.768,0.5451
26.776,0.53922
26.784,0.53922
26.792,0.52941
26.8,0.51961
26.808,0.5098
26.816,0.50588
26.824,0.5
26.832,0.51569
26.84,0.51961
26.848,0.51961
26.856,0.52941
26.864,0.53529
26.872,0.53922
26.88,0.53922
26.888,0.5451
26.896,0.53529
26.904,0.53922
26.912,0.53922
26.92,0.53529
26.928,0.52941
26.936,0.53529
26.944,0.51961
26.952,0.51961
26.96,0.5098
26.968,0.51569
26.976,0.50588
26.984,0.51569
26.992,0.51569
27,0.51961
27.008,0.51569
27.016,0.51569
27.024,0.53922
27.032,0.56471
27.04,0.58431
27.048,0.6
27.056,0.5902
27.064,0.57059
27.072,0.53922
27.08,0.51961
27.088,0.5
27.096,0.4902
27.104,0.5
27.112,0.50588
27.12,0.51961
27.128,0.52549
27.136,0.52941
27.144,0.52549
27.152,0.53529
27.16,0.61961
27.168,0.6549
27.176,0.36471
27.184,-0.30784
27.192,-0.50196
27.2,-0.037255
27.208,0.37451
27.216,0.47451
27.224,0.50588
27.232,0.53529
27.24,0.5549
27.248,0.56471
27.256,0.56078
27.264,0.5451
27.272,0.53922
27.28,0.52941
27.288,0.52549
27.296,0.52549
27.304,0.52941
27.312,0.52549
27.32,0.51961
27.328,0.51569
27.336,0.51961
27.344,0.51961
27.352,0.51961
27.36,0.51961
27.368,0.51961
27.376,0.51569
27.384,0.51569
27.392,0.50588
27.4,0.50588
27.408,0.50588
27.416,0.5098
27.424,0.5
27.432,0.5
27.44,0.49412
27.448,0.49412
27.456,0.5
27.464,0.49412
27.472,0.5
27.48,0.51569
27.488,0.51961
27.496,0.51961
27.504,0.51961
27.512,0.51961
27.52,0.51961
27.528,0.51961
27.536,0.51569
27.544,0.51569
27.552,0.51569
27.56,0.51961
27.568,0.52549
27.576,0.51961
27.584,0.51569
27.592,0.5098
27.6,0.5098
27.608,0.51569
27.616,0.51961
27.624,0.51569
27.632,0.51569
27.64,0.50588
27.648,0.5
27.656,0.5
27.664,0.51569
27.672,0.53529
27.68,0.57059
27.688,0.57451
27.696,0.57059
27.704,0.53922
27.712,0.5
27.72,0.4902
27.728,0.46471
27.736,0.4549
27.744,0.46078
27.752,0.47451
27.76,0.48039
27.768,0.4902
27.776,0.48039
27.784,0.48431
27.792,0.48431
27.8,0.56471
27.808,0.5902
27.816,0.30392
27.824,-0.31176
27.832,-0.50196
27.84,-0.041176
27.848,0.37059
27.856,0.46078
27.864,0.48039
27.872,0.5
27.88,0.51569
27.888,0.51961
27.896,0.52549
27.904,0.51961
27.912,0.50588
27.92,0.50588
27.928,0.50588
27.936,0.51569
27.944,0.48431
27.952,0.47059
27.96,0.46471
27.968,0.5
27.976,0.52549
27.984,0.5451
27.992,0.53922
28,0.5451
28.008,0.51961
28.016,0.50588
28.024,0.49412
28.032,0.48431
28.04,0.47451
28.048,0.47451
28.056,0.48431
28.064,0.5
28.072,0.5098
28.08,0.51961
28.088,0.53529
28.096,0.53922
28.104,0.5451
28.112,0.55098
28.12,0.56471
28.128,0.57059
28.136,0.58431
28.144,0.5902
28.152,0.5902
28.16,0.57451
28.168,0.57451
28.176,0.57059
28.184,0.57059
28.192,0.5549
28.2,0.55098
28.208,0.55098
28.216,0.55098
28.224,0.5549
28.232,0.5549
28.24,0.5451
28.248,0.5451
28.256,0.5451
28.264,0.53922
28.272,0.53922
28.28,0.53529
28.288,0.52941
28.296,0.52549
28.304,0.52941
28.312,0.5451
28.32,0.57059
28.328,0.58039
28.336,0.5902
28.344,0.57059
28.352,0.55098
28.36,0.51569
28.368,0.49412
28.376,0.46471
28.384,0.46078
28.392,0.46078
28.4,0.47451
28.408,0.47451
28.416,0.48431
28.424,0.4902
28.432,0.5
28.44,0.49412
28.448,0.6
28.456,0.61569
28.464,0.20392
28.472,-0.48824
28.48,-0.50196
28.488,-0.041176
28.496,0.32941
28.504,0.42941
28.512,0.47451
28.52,0.50588
28.528,0.51961
28.536,0.53922
28.544,0.52941
28.552,0.51961
28.56,0.51569
28.568,0.51961
28.576,0.50588
28.584,0.52549
28.592,0.52549
28.6,0.51961
28.608,0.50588
28.616,0.50588
28.624,0.5
28.632,0.5098
28.64,0.50588
28.648,0.50588
28.656,0.5
28.664,0.5098
28.672,0.50588
28.68,0.50588
28.688,0.51569
28.696,0.51961
28.704,0.51961
28.712,0.51961
28.72,0.51961
28.728,0.50588
28.736,0.5
28.744,0.5
28.752,0.50588
28.76,0.5
28.768,0.50588
28.776,0.50588
28.784,0.5098
28.792,0.5098
28.8,0.51569
28.808,0.51569
28.816,0.51569
28.824,0.51569
28.832,0.51961
28.84,0.51569
28.848,0.5098
28.856,0.5098
28.864,0.51569
28.872,0.51961
28.88,0.51569
28.888,0.5098
28.896,0.51569
28.904,0.5098
28.912,0.50588
28.92,0.5098
28.928,0.5098
28.936,0.5098
28.944,0.50588
28.952,0.5098
28.96,0.51961
28.968,0.5451
28.976,0.56471
28.984,0.57451
28.992,0.56078
29,0.5451
29.008,0.5098
29.016,0.49412
29.024,0.46471
29.032,0.46078
29.04,0.46471
29.048,0.47451
29.056,0.4902
29.064,0.49412
29.072,0.4902
29.08,0.49412
29.088,0.48431
29.096,0.5902
29.104,0.61569
29.112,0.27843
29.12,-0.42353
29.128,-0.50196
29.136,-0.082353
29.144,0.31373
29.152,0.42549
29.16,0.47059
29.168,0.5098
29.176,0.52549
29.184,0.5451
29.192,0.53529
29.2,0.52941
29.208,0.51961
29.216,0.51569
29.224,0.50588
29.232,0.51961
29.24,0.52549
29.248,0.51961
29.256,0.51961
29.264,0.51961
29.272,0.51569
29.28,0.51961
29.288,0.51961
29.296,0.51569
29.304,0.51961
29.312,0.51569
29.32,0.51961
29.328,0.51961
29.336,0.52549
29.344,0.52549
29.352,0.53529
29.36,0.52941
29.368,0.52549
29.376,0.51569
29.384,0.50588
29.392,0.5
29.4,0.5
29.408,0.5
29.416,0.50588
29.424,0.50588
29.432,0.51569
29.44,0.5098
29.448,0.51569
29.456,0.50588
29.464,0.5098
29.472,0.51569
29.48,0.51569
29.488,0.51961
29.496,0.51961
29.504,0.51961
29.512,0.51569
29.52,0.51961
29.528,0.51961
29.536,0.5098
29.544,0.50588
29.552,0.5
29.56,0.5
29.568,0.50588
29.576,0.49412
29.584,0.5
29.592,0.49412
29.6,0.5098
29.608,0.52941
29.616,0.5549
29.624,0.56078
29.632,0.57059
29.64,0.5451
29.648,0.52941
29.656,0.5
29.664,0.48431
29.672,0.47451
29.68,0.47451
29.688,0.48039
29.696,0.4902
29.704,0.49412
29.712,0.49412
29.72,0.49412
29.728,0.4902
29.736,0.52941
29.744,0.61961
29.752,0.50588
29.76,-0.0058823
29.768,-0.50196
29.776,-0.33725
29.784,0.21961
29.792,0.42941
29.8,0.47451
29.808,0.5
29.816,0.51961
29.824,0.52941
29.832,0.5451
29.84,0.52941
29.848,0.51961
29.856,0.51569
29.864,0.5098
29.872,0.51569
29.88,0.51961
29.888,0.51569
29.896,0.50588
29.904,0.5
29.912,0.5
29.92,0.5
29.928,0.5
29.936,0.5
29.944,0.5
29.952,0.49412
29.96,0.4902
29.968,0.5
29.976,0.48431
29.984,0.49412
29.992,0.48431
30,0.4902
30.008,0.48431
30.016,0.4902
30.024,0.48431
30.032,0.48039
30.04,0.47451
30.048,0.48431
30.056,0.49412
30.064,0.50588
30.072,0.5098
30.08,0.51569
30.088,0.51569
30.096,0.51569
30.104,0.51569
30.112,0.5098
30.12,0.51569
30.128,0.5098
30.136,0.51569
30.144,0.51569
30.152,0.51569
30.16,0.51569
30.168,0.51961
30.176,0.5098
30.184,0.50588
30.192,0.50588
30.2,0.5098
30.208,0.50588
30.216,0.5098
30.224,0.5
30.232,0.5
30.24,0.5098
30.248,0.52941
30.256,0.5549
30.264,0.56471
30.272,0.57059
30.28,0.5451
30.288,0.5098
30.296,0.48431
30.304,0.47059
30.312,0.4549
30.32,0.46078
30.328,0.4549
30.336,0.47451
30.344,0.48039
30.352,0.48431
30.36,0.47451
30.368,0.48039
30.376,0.47451
30.384,0.5902
30.392,0.4902
30.4,0.023529
30.408,-0.50196
30.416,-0.33725
30.424,0.20392
30.432,0.4451
30.44,0.47059
30.448,0.49412
30.456,0.5098
30.464,0.51961
30.472,0.52549
30.48,0.52941
30.488,0.50588
30.496,0.5
30.504,0.5
30.512,0.50588
30.52,0.49412
30.528,0.47059
30.536,0.46471
30.544,0.47451
30.552,0.5
30.56,0.51569
30.568,0.51961
30.576,0.51569
30.584,0.50588
30.592,0.4902
30.6,0.48039
30.608,0.47451
30.616,0.47059
30.624,0.47059
30.632,0.48039
30.64,0.48039
30.648,0.49412
30.656,0.5
30.664,0.51569
30.672,0.51961
30.68,0.53529
30.688,0.5451
30.696,0.56078
30.704,0.57059
30.712,0.58039
30.72,0.5902
30.728,0.5902
30.736,0.5902
30.744,0.58039
30.752,0.58431
30.76,0.57451
30.768,0.58039
30.776,0.57059
30.784,0.57059
30.792,0.57059
30.8,0.57059
30.808,0.57059
30.816,0.57059
30.824,0.57059
30.832,0.57059
30.84,0.57059
30.848,0.57059
30.856,0.57059
30.864,0.57059
30.872,0.56078
30.88,0.56078
30.888,0.56471
30.896,0.58039
30.904,0.59608
30.912,0.6098
30.92,0.61569
30.928,0.5902
30.936,0.56471
30.944,0.52941
30.952,0.51961
30.96,0.5
30.968,0.49412
30.976,0.48431
30.984,0.50588
30.992,0.5
31,0.5098
31.008,0.50588
31.016,0.50588
31.024,0.51569
31.032,0.61961
31.04,0.56078
31.048,0.14314
31.056,-0.50196
31.064,-0.50196
31.072,0.029412
31.08,0.35882
31.088,0.43922
31.096,0.48039
31.104,0.5098
31.112,0.52941
31.12,0.53922
31.128,0.53529
31.136,0.51961
31.144,0.51961
31.152,0.51569
31.16,0.51961
31.168,0.52549
31.176,0.52941
31.184,0.5098
31.192,0.5
31.2,0.50588
31.208,0.50588
31.216,0.5098
31.224,0.5
31.232,0.5098
31.24,0.5098
31.248,0.51961
31.256,0.51569
31.264,0.51961
31.272,0.5098
31.28,0.51961
31.288,0.51961
31.296,0.51961
31.304,0.5098
31.312,0.50588
31.32,0.49412
31.328,0.49412
31.336,0.4902
31.344,0.49412
31.352,0.5
31.36,0.5
31.368,0.5098
31.376,0.50588
31.384,0.51569
31.392,0.51569
31.4,0.51961
31.408,0.51569
31.416,0.51569
31.424,0.5098
31.432,0.51961
31.44,0.51569
31.448,0.51961
31.456,0.5098
31.464,0.5098
31.472,0.50588
31.48,0.5098
31.488,0.50588
31.496,0.5098
31.504,0.50588
31.512,0.50588
31.52,0.5
31.528,0.5
31.536,0.5098
31.544,0.51961
31.552,0.5451
31.56,0.56471
31.568,0.57451
31.576,0.56471
31.584,0.5451
31.592,0.51569
31.6,0.49412
31.608,0.47059
31.616,0.46078
31.624,0.4549
31.632,0.47451
31.64,0.48431
31.648,0.49412
31.656,0.4902
31.664,0.49412
31.672,0.4902
31.68,0.56078
31.688,0.6098
31.696,0.41961
31.704,-0.23725
31.712,-0.50196
31.72,-0.25686
31.728,0.24902
31.736,0.41569
31.744,0.47059
31.752,0.5
31.76,0.51961
31.768,0.5451
31.776,0.55098
31.784,0.53922
31.792,0.53529
31.8,0.52549
31.808,0.51961
31.816,0.52549
31.824,0.52941
31.832,0.53529
31.84,0.51961
31.848,0.51961
31.856,0.51961
31.864,0.51961
31.872,0.51961
31.88,0.51961
31.888,0.51569
31.896,0.51961
31.904,0.51569
31.912,0.51961
31.92,0.51961
31.928,0.52549
31.936,0.52941
31.944,0.51961
31.952,0.51961
31.96,0.5098
31.968,0.51569
31.976,0.5
31.984,0.49412
31.992,0.4902
32,0.5
32.008,0.5
32.016,0.50588
32.024,0.5098
32.032,0.51961
32.04,0.51569
32.048,0.51961
32.056,0.51569
32.064,0.51569
32.072,0.51569
32.08,0.51961
32.088,0.51569
32.096,0.51569
32.104,0.5098
32.112,0.5098
32.12,0.5
32.128,0.5
32.136,0.50588
32.144,0.5098
32.152,0.51569
32.16,0.5098
32.168,0.51569
32.176,0.51569
32.184,0.51961
32.192,0.52941
32.2,0.56078
32.208,0.57451
32.216,0.5902
32.224,0.57059
32.232,0.5549
32.24,0.51961
32.248,0.5
32.256,0.47059
32.264,0.46078
32.272,0.4549
32.28,0.46471
32.288,0.47059
32.296,0.47451
32.304,0.47451
32.312,0.47451
32.32,0.47451
32.328,0.53922
32.336,0.5902
32.344,0.4098
32.352,-0.20784
32.36,-0.50196
32.368,-0.22745
32.376,0.26863
32.384,0.42941
32.392,0.46471
32.4,0.4902
32.408,0.5098
32.416,0.52941
32.424,0.53529
32.432,0.52549
32.44,0.51569
32.448,0.51961
32.456,0.51569
32.464,0.52549
32.472,0.51961
32.48,0.51961
32.488,0.51569
32.496,0.51569
32.504,0.51569
32.512,0.51961
32.52,0.51569
32.528,0.5098
32.536,0.50588
32.544,0.50588
32.552,0.5098
32.56,0.50588
32.568,0.50588
32.576,0.5098
32.584,0.5
32.592,0.5
32.6,0.5
32.608,0.48431
32.616,0.48431
32.624,0.47451
32.632,0.47451
32.64,0.48039
32.648,0.5
32.656,0.5
32.664,0.51569
32.672,0.51961
32.68,0.51961
32.688,0.5098
32.696,0.5098
32.704,0.5098
32.712,0.51569
32.72,0.50588
32.728,0.51569
32.736,0.51569
32.744,0.51569
32.752,0.51569
32.76,0.5098
32.768,0.51569
32.776,0.5
32.784,0.5
32.792,0.5
32.8,0.5
32.808,0.5
32.816,0.50588
32.824,0.5
32.832,0.50588
32.84,0.51569
32.848,0.5451
32.856,0.5549
32.864,0.56471
32.872,0.5451
32.88,0.51569
32.888,0.48039
32.896,0.47451
32.904,0.44902
32.912,0.4451
32.92,0.44902
32.928,0.4549
32.936,0.46471
32.944,0.47059
32.952,0.47451
32.96,0.47059
32.968,0.47059
32.976,0.5451
32.984,0.57451
32.992,0.31961
33,-0.29804
33.008,-0.50196
33.016,-0.082353
33.024,0.33922
33.032,0.44902
33.04,0.46471
33.048,0.49412
33.056,0.5
33.064,0.5098
33.072,0.51569
33.08,0.5098
33.088,0.49412
33.096,0.48431
33.104,0.4902
33.112,0.5
33.12,0.5
33.128,0.4902
33.136,0.47451
33.144,0.47451
33.152,0.48039
33.16,0.4902
33.168,0.49412
33.176,0.48039
33.184,0.47059
33.192,0.46471
33.2,0.46078
33.208,0.4549
33.216,0.46078
33.224,0.44902
33.232,0.43529
33.24,0.42941
33.248,0.4451
33.256,0.46471
33.264,0.48431
33.272,0.5
33.28,0.51961
33.288,0.52941
33.296,0.53922
33.304,0.5451
33.312,0.5549
33.32,0.5549
33.328,0.56078
33.336,0.56078
33.344,0.56471
33.352,0.57451
33.36,0.58431
33.368,0.5902
33.376,0.58431
33.384,0.58039
33.392,0.57451
33.4,0.58039
33.408,0.57451
33.416,0.58039
33.424,0.57451
33.432,0.58039
33.44,0.57451
33.448,0.58039
33.456,0.57059
33.464,0.57451
33.472,0.57059
33.48,0.57059
33.488,0.58039
33.496,0.60588
33.504,0.61961
33.512,0.62941
33.52,0.63529
33.528,0.5902
33.536,0.56078
33.544,0.53529
33.552,0.51569
33.56,0.5
33.568,0.5
33.576,0.5098
33.584,0.51961
33.592,0.51961
33.6,0.51961
33.608,0.51961
33.616,0.51961
33.624,0.57451
33.632,0.62549
33.64,0.41569
33.648,-0.19216
33.656,-0.50196
33.664,-0.22157
33.672,0.25882
33.68,0.42549
33.688,0.47059
33.696,0.49412
33.704,0.51569
33.712,0.52941
33.72,0.53922
33.728,0.51961
33.736,0.50588
33.744,0.5
33.752,0.5
33.76,0.50588
33.768,0.5098
33.776,0.5
33.784,0.4902
33.792,0.48431
33.8,0.49412
33.808,0.5
33.816,0.5
33.824,0.49412
33.832,0.5
33.84,0.5
33.848,0.5
33.856,0.5
33.864,0.5
33.872,0.5
33.88,0.50588
33.888,0.5098
33.896,0.5098
33.904,0.5
33.912,0.49412
33.92,0.48431
33.928,0.4902
33.936,0.4902
33.944,0.49412
33.952,0.49412
33.96,0.5
33.968,0.50588
33.976,0.5098
33.984,0.51961
33.992,0.51569
34,0.51961
34.008,0.51569
34.016,0.51961
34.024,0.51961
34.032,0.51961
34.04,0.51569
34.048,0.51961
34.056,0.5098
34.064,0.5098
34.072,0.5098
34.08,0.51569
34.088,0.5098
34.096,0.51569
34.104,0.51569
34.112,0.51961
34.12,0.51961
34.128,0.51961
34.136,0.51961
34.144,0.53529
34.152,0.5549
34.16,0.57451
34.168,0.5902
34.176,0.58039
34.184,0.55098
34.192,0.52549
34.2,0.5
34.208,0.47451
34.216,0.46078
34.224,0.4549
34.232,0.47451
34.24,0.48039
34.248,0.4902
34.256,0.4902
34.264,0.49412
34.272,0.48431
34.28,0.53922
34.288,0.60588
34.296,0.4549
34.304,-0.11765
34.312,-0.50196
34.32,-0.35686
34.328,0.18824
34.336,0.3902
34.344,0.4549
34.352,0.49412
34.36,0.51961
34.368,0.53922
34.376,0.5451
34.384,0.53922
34.392,0.53529
34.4,0.51961
34.408,0.51569
34.416,0.52549
34.424,0.53922
34.432,0.52941
34.44,0.51961
34.448,0.51569
34.456,0.51569
34.464,0.52549
34.472,0.51961
34.48,0.51961
34.488,0.51569
34.496,0.51961
34.504,0.51569
34.512,0.51961
34.52,0.52549
34.528,0.51961
34.536,0.51961
34.544,0.52941
34.552,0.52549
34.56,0.51569
34.568,0.5
34.576,0.5
34.584,0.5
34.592,0.5
34.6,0.5
34.608,0.5
34.616,0.50588
34.624,0.5
34.632,0.51569
34.64,0.51569
34.648,0.51961
34.656,0.51961
34.664,0.51961
34.672,0.51961
34.68,0.51961
34.688,0.51569
34.696,0.51569
34.704,0.5098
34.712,0.5098
34.72,0.50588
34.728,0.50588
34.736,0.50588
34.744,0.51569
34.752,0.51961
34.76,0.51569
34.768,0.5098
34.776,0.5098
34.784,0.51961
34.792,0.51569
34.8,0.52941
34.808,0.55098
34.816,0.57451
34.824,0.58431
34.832,0.5902
34.84,0.56078
34.848,0.53529
34.856,0.5
34.864,0.48431
34.872,0.47059
34.88,0.47451
34.888,0.47451
34.896,0.49412
34.904,0.5
34.912,0.5
34.92,0.49412
34.928,0.49412
34.936,0.53922
34.944,0.6
34.952,0.4451
34.96,-0.13725
34.968,-0.50196
34.976,-0.29804
34.984,0.22353
34.992,0.41569
35,0.46078
35.008,0.49412
35.016,0.51569
35.024,0.53529
35.032,0.5451
35.04,0.5451
35.048,0.53529
35.056,0.51961
35.064,0.51961
35.072,0.51569
35.08,0.52549
35.088,0.52549
35.096,0.51961
35.104,0.51569
35.112,0.51961
35.12,0.51569
35.128,0.51961
35.136,0.51569
35.144,0.51569
35.152,0.50588
35.16,0.5098
35.168,0.51569
35.176,0.51961
35.184,0.51569
35.192,0.51569
35.2,0.51961
35.208,0.5
35.216,0.4902
35.224,0.47451
35.232,0.47451
35.24,0.47059
35.248,0.47451
35.256,0.47451
35.264,0.5
35.272,0.50588
35.28,0.51569
35.288,0.51569
35.296,0.51961
35.304,0.5098
35.312,0.5098
35.32,0.5
35.328,0.5
35.336,0.5
35.344,0.5
35.352,0.5
35.36,0.5
35.368,0.5
35.376,0.5
35.384,0.4902
35.392,0.48431
35.4,0.4902
35.408,0.49412
35.416,0.5
35.424,0.5
35.432,0.50588
35.44,0.5
35.448,0.51569
35.456,0.52549
35.464,0.55098
35.472,0.5549
35.48,0.56078
35.488,0.52941
35.496,0.50588
35.504,0.47451
35.512,0.4549
35.52,0.43922
35.528,0.4451
35.536,0.4451
35.544,0.4549
35.552,0.46471
35.56,0.46471
35.568,0.46078
35.576,0.44902
35.584,0.48431
35.592,0.56471
35.6,0.4451
35.608,-0.041176
35.616,-0.50196
35.624,-0.32157
35.632,0.20392
35.64,0.41569
35.648,0.43922
35.656,0.46471
35.664,0.47451
35.672,0.4902
35.68,0.49412
35.688,0.4902
35.696,0.48039
35.704,0.46471
35.712,0.46471
35.72,0.47451
35.728,0.48039
35.736,0.47059
35.744,0.46471
35.752,0.46471
35.76,0.46471
35.768,0.47451
35.776,0.47451
35.784,0.47059
35.792,0.4549
35.8,0.4451
35.808,0.43529
35.816,0.43529
35.824,0.43922
35.832,0.4451
35.84,0.43922
35.848,0.43922
35.856,0.43529
35.864,0.43922
35.872,0.44902
35.88,0.46471
35.888,0.47451
35.896,0.49412
35.904,0.5
35.912,0.5
35.92,0.5098
35.928,0.53922
35.936,0.5451
35.944,0.5451
35.952,0.55098
35.96,0.56078
35.968,0.56471
35.976,0.56078
35.984,0.5549
35.992,0.55098
36,0.55098
36.008,0.5451
36.016,0.5549
36.024,0.56078
36.032,0.56078
36.04,0.56078
36.048,0.56471
36.056,0.56078
36.064,0.56471
36.072,0.5549
36.08,0.56078
36.088,0.56078
36.096,0.57059
36.104,0.58039
36.112,0.6
36.12,0.61569
36.128,0.62941
36.136,0.61961
36.144,0.59608
36.152,0.56078
36.16,0.5451
36.168,0.51961
36.176,0.5098
36.184,0.5
36.192,0.5098
36.2,0.51961
36.208,0.52941
36.216,0.53529
36.224,0.52941
36.232,0.52549
36.24,0.59608
36.248,0.64118
36.256,0.43922
36.264,-0.19216
36.272,-0.50196
36.28,-0.21765
36.288,0.28431
36.296,0.44902
36.304,0.48431
36.312,0.51569
36.32,0.52549
36.328,0.5451
36.336,0.5451
36.344,0.53922
36.352,0.51961
36.36,0.51569
36.368,0.51961
36.376,0.52549
36.384,0.52941
36.392,0.52549
36.4,0.5098
36.408,0.5
36.416,0.5098
36.424,0.50588
36.432,0.5098
36.44,0.5
36.448,0.50588
36.456,0.5
36.464,0.5098
36.472,0.50588
36.48,0.50588
36.488,0.5
36.496,0.5
36.504,0.5
36.512,0.5
36.52,0.49412
36.528,0.5
36.536,0.4902
36.544,0.4902
36.552,0.49412
36.56,0.5
36.568,0.5
36.576,0.50588
36.584,0.5098
36.592,0.51569
36.6,0.51569
36.608,0.51961
36.616,0.51569
36.624,0.51569
36.632,0.51961
36.64,0.51569
36.648,0.51961
36.656,0.51569
36.664,0.51961
36.672,0.50588
36.68,0.5098
36.688,0.50588
36.696,0.5098
36.704,0.50588
36.712,0.51961
36.72,0.51569
36.728,0.51961
36.736,0.51961
36.744,0.52549
36.752,0.52941
36.76,0.52549
36.768,0.56471
36.776,0.58431
36.784,0.58039
36.792,0.57059
36.8,0.5451
36.808,0.52549
36.816,0.5
36.824,0.48431
36.832,0.48039
36.84,0.48039
36.848,0.48431
36.856,0.48039
36.864,0.48431
36.872,0.48431
36.88,0.52941
36.888,0.60588
36.896,0.48039
36.904,-0.072549
36.912,-0.50196
36.92,-0.40784
36.928,0.15882
36.936,0.38039
36.944,0.44902
36.952,0.4902
36.96,0.51961
36.968,0.53529
36.976,0.53922
36.984,0.51961
36.992,0.51569
37,0.51961
37.008,0.51961
37.016,0.51961
37.024,0.51961
37.032,0.52549
37.04,0.51569
37.048,0.51569
37.056,0.51961
37.064,0.51569
37.072,0.51569
37.08,0.51569
37.088,0.5098
37.096,0.51961
37.104,0.51961
37.112,0.52549
37.12,0.52941
37.128,0.52549
37.136,0.52549
37.144,0.52549
37.152,0.51961
37.16,0.51961
37.168,0.5098
37.176,0.5
37.184,0.5
37.192,0.5
37.2,0.5
37.208,0.5
37.216,0.5098
37.224,0.51961
37.232,0.52549
37.24,0.51961
37.248,0.52549
37.256,0.51961
37.264,0.52941
37.272,0.52549
37.28,0.51961
37.288,0.51961
37.296,0.52549
37.304,0.51961
37.312,0.51961
37.32,0.51961
37.328,0.51961
37.336,0.51569
37.344,0.51961
37.352,0.51569
37.36,0.51961
37.368,0.51569
37.376,0.51961
37.384,0.51961
37.392,0.51961
37.4,0.51569
37.408,0.5098
37.416,0.53529
37.424,0.56078
37.432,0.57059
37.44,0.57059
37.448,0.5451
37.456,0.51961
37.464,0.5
37.472,0.47451
37.48,0.4549
37.488,0.44902
37.496,0.46471
37.504,0.47451
37.512,0.48431
37.52,0.48431
37.528,0.49412
37.536,0.48431
37.544,0.48039
37.552,0.6
37.56,0.52549
37.568,0.068627
37.576,-0.50196
37.584,-0.45294
37.592,0.1098
37.6,0.38039
37.608,0.4451
37.616,0.48431
37.624,0.5098
37.632,0.51961
37.64,0.53529
37.648,0.53922
37.656,0.52549
37.664,0.51569
37.672,0.50588
37.68,0.5098
37.688,0.51961
37.696,0.51961
37.704,0.51569
37.712,0.50588
37.72,0.5
37.728,0.5
37.736,0.5
37.744,0.5
37.752,0.48431
37.76,0.48431
37.768,0.48039
37.776,0.48431
37.784,0.4902
37.792,0.48431
37.8,0.49412
37.808,0.49412
37.816,0.4902
37.824,0.48431
37.832,0.48431
37.84,0.47451
37.848,0.47451
37.856,0.48039
37.864,0.5
37.872,0.5
37.88,0.51569
37.888,0.51961
37.896,0.52941
37.904,0.52549
37.912,0.52549
37.92,0.52549
37.928,0.53529
37.936,0.53922
37.944,0.53529
37.952,0.52941
37.96,0.53529
37.968,0.52549
37.976,0.51961
37.984,0.51961
37.992,0.51961
38,0.51961
38.008,0.51961
38.016,0.51961
38.024,0.52549
38.032,0.51961
38.04,0.51961
38.048,0.51961
38.056,0.51961
38.064,0.53529
38.072,0.5549
38.08,0.56471
38.088,0.56471
38.096,0.55098
38.104,0.52549
38.112,0.5
38.12,0.48039
38.128,0.46078
38.136,0.4549
38.144,0.46471
38.152,0.47451
38.16,0.4902
38.168,0.4902
38.176,0.49412
38.184,0.48431
38.192,0.48039
38.2,0.56471
38.208,0.58431
38.216,0.3
38.224,-0.32745
38.232,-0.50196
38.24,-0.021569
38.248,0.36471
38.256,0.4549
38.264,0.47451
38.272,0.49412
38.28,0.5098
38.288,0.51569
38.296,0.51961
38.304,0.5098
38.312,0.49412
38.32,0.48039
38.328,0.49412
38.336,0.49412
38.344,0.49412
38.352,0.47451
38.36,0.47451
38.368,0.46471
38.376,0.47059
38.384,0.47451
38.392,0.47059
38.4,0.46471
38.408,0.46078
38.416,0.44902
38.424,0.4451
38.432,0.4451
38.44,0.4451
38.448,0.44902
38.456,0.43529
38.464,0.4451
38.472,0.44902
38.48,0.44902
38.488,0.44902
38.496,0.4549
38.504,0.46471
38.512,0.47451
38.52,0.4902
38.528,0.50588
38.536,0.51569
38.544,0.51961
38.552,0.5098
38.56,0.5098
38.568,0.50588
38.576,0.51569
38.584,0.5098
38.592,0.5098
38.6,0.5
38.608,0.5
38.616,0.5
38.624,0.5
38.632,0.49412
38.64,0.49412
38.648,0.5
38.656,0.48431
38.664,0.49412
38.672,0.4902
38.68,0.5
38.688,0.5
38.696,0.50588
38.704,0.5
38.712,0.50588
38.72,0.51961
38.728,0.52549
38.736,0.51961
38.744,0.5451
38.752,0.52941
38.76,0.50588
38.768,0.48431
38.776,0.47451
38.784,0.47059
38.792,0.46471
38.8,0.47059
38.808,0.48039
38.816,0.48431
38.824,0.48039
38.832,0.4902
38.84,0.4902
38.848,0.5451
38.856,0.59608
38.864,0.43922
38.872,-0.12745
38.88,-0.50196
38.888,-0.18627
38.896,0.31961
38.904,0.49412
38.912,0.51961
38.92,0.53529
38.928,0.5549
38.936,0.56471
38.944,0.57451
38.952,0.57451
38.96,0.56078
38.968,0.5451
38.976,0.5549
38.984,0.5549
38.992,0.56471
39,0.5451
39.008,0.53922
39.016,0.53529
39.024,0.53922
39.032,0.5451
39.04,0.5451
39.048,0.53922
39.056,0.52941
39.064,0.51961
39.072,0.5098
39.08,0.5
39.088,0.5
39.096,0.50588
39.104,0.5
39.112,0.50588
39.12,0.5
39.128,0.50588
39.136,0.5
39.144,0.5098
39.152,0.51569
39.16,0.51961
39.168,0.52549
39.176,0.5451
39.184,0.5451
39.192,0.56078
39.2,0.5451
39.208,0.5451
39.216,0.53922
39.224,0.5451
39.232,0.53922
39.24,0.53529
39.248,0.53529
39.256,0.52941
39.264,0.52941
39.272,0.52549
39.28,0.52941
39.288,0.51961
39.296,0.51569
39.304,0.5098
39.312,0.51569
39.32,0.50588
39.328,0.51569
39.336,0.51569
39.344,0.51569
39.352,0.5098
39.36,0.51569
39.368,0.51961
39.376,0.5451
39.384,0.56078
39.392,0.58039
39.4,0.58431
39.408,0.5549
39.416,0.53529
39.424,0.50588
39.432,0.48039
39.44,0.46471
39.448,0.4549
39.456,0.46078
39.464,0.47451
39.472,0.47451
39.48,0.48431
39.488,0.48039
39.496,0.48431
39.504,0.48039
39.512,0.60588
39.52,0.52549
39.528,0.068627
39.536,-0.50196
39.544,-0.50196
39.552,0.058824
39.56,0.35882
39.568,0.42941
39.576,0.47059
39.584,0.49412
39.592,0.51961
39.6,0.52549
39.608,0.52549
39.616,0.50588
39.624,0.5
39.632,0.50588
39.64,0.5098
39.648,0.51961
39.656,0.52549
39.664,0.5098
39.672,0.50588
39.68,0.5098
39.688,0.51569
39.696,0.51961
39.704,0.5098
39.712,0.51569
39.72,0.5098
39.728,0.5098
39.736,0.51569
39.744,0.51961
39.752,0.51961
39.76,0.52549
39.768,0.51961
39.776,0.51961
39.784,0.51961
39.792,0.5098
39.8,0.5
39.808,0.5
39.816,0.49412
39.824,0.5
39.832,0.50588
39.84,0.5098
39.848,0.51569
39.856,0.51961
39.864,0.51961
39.872,0.51961
39.88,0.51961
39.888,0.51961
39.896,0.52549
39.904,0.51961
39.912,0.51961
39.92,0.51961
39.928,0.52941
39.936,0.51961
39.944,0.52549
39.952,0.51961
39.96,0.52549
39.968,0.51961
39.976,0.51961
39.984,0.51961
39.992,0.52549
40,0.51961
40.008,0.51961
40.016,0.51961
40.024,0.53529
40.032,0.5549
40.04,0.57059
40.048,0.58039
40.056,0.57059
40.064,0.5451
40.072,0.52549
40.08,0.5
40.088,0.47451
40.096,0.46078
40.104,0.4549
40.112,0.47451
40.12,0.48039
40.128,0.49412
40.136,0.48431
40.144,0.4902
40.152,0.48431
40.16,0.52941
40.168,0.6098
40.176,0.48039
40.184,-0.072549
40.192,-0.50196
40.2,-0.35294
40.208,0.18431
40.216,0.3902
40.224,0.44902
40.232,0.48431
40.24,0.51569
40.248,0.52941
40.256,0.5451
40.264,0.53922
40.272,0.52549
40.28,0.51961
40.288,0.51569
40.296,0.51961
40.304,0.51961
40.312,0.52941
40.32,0.51961
40.328,0.51569
40.336,0.51569
40.344,0.51961
40.352,0.51569
40.36,0.50588
40.368,0.49412
40.376,0.5
40.384,0.5
40.392,0.50588
40.4,0.5098
40.408,0.51569
40.416,0.51569
40.424,0.51961
40.432,0.51569
40.44,0.5098
40.448,0.50588
40.456,0.50588
40.464,0.5
40.472,0.5
40.48,0.50588
40.488,0.5098
40.496,0.51961
40.504,0.51961
40.512,0.51961
40.52,0.51961
40.528,0.51961
40.536,0.51961
40.544,0.51961
40.552,0.51569
40.56,0.5098
40.568,0.5
40.576,0.5
40.584,0.49412
40.592,0.49412
40.6,0.4902
40.608,0.49412
40.616,0.49412
40.624,0.5
40.632,0.49412
40.64,0.5
40.648,0.5
40.656,0.50588
40.664,0.50588
40.672,0.51569
40.68,0.52549
40.688,0.5451
40.696,0.56471
40.704,0.57059
40.712,0.5549
40.72,0.52549
40.728,0.5
40.736,0.47451
40.744,0.46471
40.752,0.46471
40.76,0.47451
40.768,0.47451
40.776,0.4902
40.784,0.4902
40.792,0.49412
40.8,0.4902
40.808,0.50588
40.816,0.59608
40.824,0.6
40.832,0.19412
40.84,-0.42353
40.848,-0.50196
40.856,0.094118
40.864,0.39412
40.872,0.44902
40.88,0.47451
40.888,0.5
40.896,0.51569
40.904,0.51961
40.912,0.52549
40.92,0.5098
40.928,0.5
40.936,0.5
40.944,0.50588
40.952,0.50588
40.96,0.5098
40.968,0.5
40.976,0.49412
40.984,0.49412
40.992,0.5
41,0.49412
41.008,0.49412
41.016,0.48039
41.024,0.48039
41.032,0.47451
41.04,0.47451
41.048,0.47451
41.056,0.47059
41.064,0.47059
41.072,0.47059
41.08,0.46471
41.088,0.46078
41.096,0.46471
41.104,0.46078
41.112,0.47059
41.12,0.47451
41.128,0.48431
41.136,0.49412
41.144,0.50588
41.152,0.50588
41.16,0.51569
41.168,0.5
41.176,0.5
41.184,0.5
41.192,0.5
41.2,0.5
41.208,0.49412
41.216,0.49412
41.224,0.49412
41.232,0.49412
41.24,0.49412
41.248,0.5
41.256,0.5
41.264,0.5
41.272,0.5
41.28,0.49412
41.288,0.49412
41.296,0.5
41.304,0.5
41.312,0.50588
41.32,0.5
41.328,0.52549
41.336,0.53922
41.344,0.56078
41.352,0.56471
41.36,0.5451
41.368,0.51569
41.376,0.48039
41.384,0.47059
41.392,0.4549
41.4,0.4451
41.408,0.44902
41.416,0.46078
41.424,0.47451
41.432,0.47451
41.44,0.48431
41.448,0.47451
41.456,0.48039
41.464,0.57451
41.472,0.58431
41.48,0.22941
41.488,-0.41176
41.496,-0.50196
41.504,0.043137
41.512,0.38431
41.52,0.43922
41.528,0.46078
41.536,0.4902
41.544,0.51569
41.552,0.51961
41.56,0.53529
41.568,0.51961
41.576,0.5098
41.584,0.50588
41.592,0.5098
41.6,0.51569
41.608,0.5
41.616,0.49412
41.624,0.4902
41.632,0.49412
41.64,0.5
41.648,0.50588
41.656,0.5
41.664,0.4902
41.672,0.48039
41.68,0.47451
41.688,0.47059
41.696,0.47059
41.704,0.47451
41.712,0.47451
41.72,0.48431
41.728,0.5
41.736,0.5
41.744,0.50588
41.752,0.5098
41.76,0.51961
41.768,0.52941
41.776,0.55098
41.784,0.56078
41.792,0.57451
41.8,0.58431
41.808,0.5902
41.816,0.5902
41.824,0.5902
41.832,0.58431
41.84,0.5902
41.848,0.5902
41.856,0.5902
41.864,0.5902
41.872,0.58431
41.88,0.5902
41.888,0.58431
41.896,0.58431
41.904,0.58039
41.912,0.58431
41.92,0.57059
41.928,0.57059
41.936,0.57059
41.944,0.57451
41.952,0.57059
41.96,0.57059
41.968,0.57059
41.976,0.57451
41.984,0.5902
41.992,0.6098
42,0.62549
42.008,0.63529
42.016,0.60588
42.024,0.58039
42.032,0.5451
42.04,0.52549
42.048,0.49412
42.056,0.4902
42.064,0.49412
42.072,0.5
42.08,0.50588
42.088,0.5098
42.096,0.5098
42.104,0.5098
42.112,0.50588
42.12,0.61961
42.128,0.62941
42.136,0.2
42.144,-0.49216
42.152,-0.50196
42.16,0.017647
42.168,0.3549
42.176,0.4451
42.184,0.48039
42.192,0.50588
42.2,0.51961
42.208,0.53922
42.216,0.53529
42.224,0.52549
42.232,0.5098
42.24,0.51569
42.248,0.52549
42.256,0.52941
42.264,0.53529
42.272,0.51961
42.28,0.5098
42.288,0.5098
42.296,0.50588
42.304,0.50588
42.312,0.5098
42.32,0.5
42.328,0.5
42.336,0.5
42.344,0.50588
42.352,0.50588
42.36,0.5098
42.368,0.5
42.376,0.5098
42.384,0.50588
42.392,0.50588
42.4,0.5
42.408,0.5
42.416,0.5
42.424,0.5
42.432,0.4902
42.44,0.5
42.448,0.50588
42.456,0.5098
42.464,0.51569
42.472,0.51961
42.48,0.51961
42.488,0.51569
42.496,0.51961
42.504,0.5098
42.512,0.5098
42.52,0.51569
42.528,0.51961
42.536,0.51569
42.544,0.51961
42.552,0.50588
42.56,0.50588
42.568,0.5
42.576,0.5
42.584,0.5
42.592,0.50588
42.6,0.5
42.608,0.50588
42.616,0.5
42.624,0.5098
42.632,0.5098
42.64,0.53922
42.648,0.5549
42.656,0.57451
42.664,0.58431
42.672,0.56471
42.68,0.5451
42.688,0.51569
42.696,0.4902
42.704,0.47451
42.712,0.47451
42.72,0.47451
42.728,0.49412
42.736,0.5
42.744,0.5
42.752,0.5
42.76,0.50588
42.768,0.5
42.776,0.61961
42.784,0.56471
42.792,0.16863
42.8,-0.49216
42.808,-0.50196
42.816,0.043137
42.824,0.35882
42.832,0.43922
42.84,0.48431
42.848,0.50588
42.856,0.52549
42.864,0.53529
42.872,0.53922
42.88,0.51961
42.888,0.51961
42.896,0.51569
42.904,0.51961
42.912,0.51961
42.92,0.52941
42.928,0.51961
42.936,0.51961
42.944,0.51569
42.952,0.51961
42.96,0.51961
42.968,0.51569
42.976,0.51569
42.984,0.5098
42.992,0.51961
43,0.51569
43.008,0.51961
43.016,0.51569
43.024,0.51961
43.032,0.51961
43.04,0.51961
43.048,0.5098
43.056,0.5098
43.064,0.5
43.072,0.5
43.08,0.5
43.088,0.5
43.096,0.5098
43.104,0.50588
43.112,0.51961
43.12,0.51961
43.128,0.52549
43.136,0.51961
43.144,0.52549
43.152,0.51961
43.16,0.51961
43.168,0.5
43.176,0.42941
43.184,0.35882
43.192,0.42549
43.2,0.63529
43.208,1.1059
43.216,1.5039
43.224,1.5039
43.232,1.5039
43.24,1.302
43.248,1.1961
43.256,1.1961
43.264,1.0373
43.272,0.77059
43.28,0.5
43.288,0.3098
43.296,0.22353
43.304,0.2098
43.312,0.2
43.32,0.17451
43.328,0.14314
43.336,0.1098
43.344,0.084314
43.352,0.043137
43.36,0.0039216
43.368,-0.027451
43.376,-0.076471
43.384,-0.12745
43.392,-0.17647
43.4,-0.23725
43.408,-0.27647
43.416,-0.31176
43.424,-0.32157
43.432,-0.32745
43.44,-0.27255
43.448,-0.19608
43.456,-0.10588
43.464,0.0078431
43.472,0.11961
43.48,0.22941
43.488,0.33922
43.496,0.41569
43.504,0.4902
43.512,0.53922
43.52,0.56471
43.528,0.5902
43.536,0.6
43.544,0.6098
43.552,0.6098
43.56,0.61569
43.568,0.61569
43.576,0.61569
43.584,0.6098
43.592,0.61569
43.6,0.6098
43.608,0.61569
43.616,0.6098
43.624,0.60588
43.632,0.60588
43.64,0.6098
43.648,0.60588
43.656,0.60588
43.664,0.6
43.672,0.59608
43.68,0.5902
43.688,0.5902
43.696,0.5902
43.704,0.5902
43.712,0.5902
43.72,0.58431
43.728,0.58431
43.736,0.58039
43.744,0.57451
43.752,0.57451
43.76,0.57059
43.768,0.57059
43.776,0.57059
43.784,0.57059
43.792,0.57059
43.8,0.56471
43.808,0.57059
43.816,0.56078
43.824,0.56078
43.832,0.55098
43.84,0.55098
43.848,0.5451
43.856,0.55098
43.864,0.5451
43.872,0.5451
43.88,0.5451
43.888,0.5451
43.896,0.53922
43.904,0.53529
43.912,0.53922
43.92,0.53529
43.928,0.52941
43.936,0.52549
43.944,0.53529
43.952,0.52941
43.96,0.5451
43.968,0.56471
43.976,0.58431
43.984,0.58039
43.992,0.56078
44,0.52549
44.008,0.5
44.016,0.47451
44.024,0.47059
44.032,0.46471
44.04,0.47451
44.048,0.4902
44.056,0.5
44.064,0.5
44.072,0.49412
44.08,0.4902
44.088,0.57451
44.096,0.59608
44.104,0.28431
44.112,-0.36667
44.12,-0.50196
44.128,-0.072549
44.136,0.33529
44.144,0.43922
44.152,0.46078
44.16,0.4902
44.168,0.5098
44.176,0.52549
44.184,0.51569
44.192,0.5
44.2,0.48039
44.208,0.47451
44.216,0.47451
44.224,0.4902
44.232,0.49412
44.24,0.50588
44.248,0.5098
44.256,0.5098
44.264,0.5
44.272,0.5
44.28,0.48431
44.288,0.47451
44.296,0.47059
44.304,0.46471
44.312,0.4549
44.32,0.44902
44.328,0.44902
44.336,0.4451
44.344,0.44902
44.352,0.4451
44.36,0.43922
44.368,0.42549
44.376,0.43922
44.384,0.46078
44.392,0.47451
44.4,0.49412
44.408,0.50588
44.416,0.51569
44.424,0.51961
44.432,0.50588
44.44,0.50588
44.448,0.5098
44.456,0.51961
44.464,0.52941
44.472,0.53922
44.48,0.53922
44.488,0.5451
44.496,0.5549
44.504,0.55098
44.512,0.56078
44.52,0.55098
44.528,0.55098
44.536,0.55098
44.544,0.5451
44.552,0.5549
44.56,0.56471
44.568,0.56471
44.576,0.57059
44.584,0.57059
44.592,0.57059
44.6,0.57059
44.608,0.58431
44.616,0.60588
44.624,0.62941
44.632,0.64118
44.64,0.64118
44.648,0.6098
44.656,0.57451
44.664,0.5451
44.672,0.53529
44.68,0.51961
44.688,0.51569
44.696,0.52549
44.704,0.53922
44.712,0.5451
44.72,0.53922
44.728,0.5451
44.736,0.53922
44.744,0.58431
44.752,0.66078
44.76,0.53529
44.768,-0.031373
44.776,-0.50196
44.784,-0.32157
44.792,0.21961
44.8,0.43529
44.808,0.48431
44.816,0.5098
44.824,0.52549
44.832,0.53922
44.84,0.55098
44.848,0.5451
44.856,0.53529
44.864,0.51961
44.872,0.51961
44.88,0.51961
44.888,0.52941
44.896,0.52549
44.904,0.51569
44.912,0.5
44.92,0.5
44.928,0.5
44.936,0.5
44.944,0.49412
44.952,0.4902
44.96,0.4902
44.968,0.49412
44.976,0.5
44.984,0.5
44.992,0.5
45,0.5
45.008,0.5098
45.016,0.51569
45.024,0.51569
45.032,0.50588
45.04,0.5098
45.048,0.5
45.056,0.50588
45.064,0.5098
45.072,0.51569
45.08,0.51961
45.088,0.52549
45.096,0.53529
45.104,0.52549
45.112,0.51961
45.12,0.51961
45.128,0.52549
45.136,0.51961
45.144,0.52549
45.152,0.51961
45.16,0.51961
45.168,0.51569
45.176,0.51961
45.184,0.5098
45.192,0.5098
45.2,0.50588
45.208,0.51569
45.216,0.5098
45.224,0.51569
45.232,0.51569
45.24,0.51961
45.248,0.51569
45.256,0.51961
45.264,0.52549
45.272,0.55098
45.28,0.56471
45.288,0.58431
45.296,0.5902
45.304,0.57059
45.312,0.5451
45.32,0.51569
45.328,0.5
45.336,0.47451
45.344,0.47451
45.352,0.48039
45.36,0.49412
45.368,0.5
45.376,0.5098
45.384,0.5
45.392,0.5
45.4,0.5098
45.408,0.61961
45.416,0.5549
45.424,0.13922
45.432,-0.50196
45.44,-0.50196
45.448,0.062745
45.456,0.36471
45.464,0.43922
45.472,0.48039
45.48,0.5
45.488,0.51961
45.496,0.52941
45.504,0.53922
45.512,0.52549
45.52,0.51961
45.528,0.5098
45.536,0.51961
45.544,0.52549
45.552,0.52549
45.56,0.51569
45.568,0.50588
45.576,0.51569
45.584,0.51569
45.592,0.51961
45.6,0.5098
45.608,0.50588
45.616,0.5
45.624,0.50588
45.632,0.50588
45.64,0.5098
45.648,0.50588
45.656,0.5098
45.664,0.5098
45.672,0.51569
45.68,0.50588
45.688,0.50588
45.696,0.49412
45.704,0.5
45.712,0.5
45.72,0.49412
45.728,0.5098
45.736,0.51569
45.744,0.51961
45.752,0.51961
45.76,0.51961
45.768,0.52549
45.776,0.52549
45.784,0.52549
45.792,0.52941
45.8,0.52549
45.808,0.52941
45.816,0.51961
45.824,0.52549
45.832,0.51961
45.84,0.51961
45.848,0.51961
45.856,0.51961
45.864,0.52549
45.872,0.51961
45.88,0.52549
45.888,0.51961
45.896,0.52941
45.904,0.52549
45.912,0.51961
45.92,0.52941
45.928,0.55098
45.936,0.57059
45.944,0.58039
45.952,0.58431
45.96,0.5549
45.968,0.52941
45.976,0.5
45.984,0.47451
45.992,0.47059
46,0.46471
46.008,0.48039
46.016,0.49412
46.024,0.5
46.032,0.5
46.04,0.5
46.048,0.5
46.056,0.53529
46.064,0.61961
46.072,0.5098
46.08,0.0078431
46.088,-0.50196
46.096,-0.35686
46.104,0.16863
46.112,0.4
46.12,0.4549
46.128,0.4902
46.136,0.5098
46.144,0.51961
46.152,0.52549
46.16,0.51961
46.168,0.5098
46.176,0.49412
46.184,0.48431
46.192,0.5
46.2,0.5
46.208,0.5
46.216,0.49412
46.224,0.4902
46.232,0.48431
46.24,0.49412
46.248,0.5
46.256,0.5
46.264,0.49412
46.272,0.49412
46.28,0.4902
46.288,0.48431
46.296,0.4902
46.304,0.49412
46.312,0.5
46.32,0.50588
46.328,0.5
46.336,0.49412
46.344,0.4902
46.352,0.4902
46.36,0.49412
46.368,0.4902
46.376,0.50588
46.384,0.51569
46.392,0.53529
46.4,0.53922
46.408,0.5451
46.416,0.5451
46.424,0.53922
46.432,0.52941
46.44,0.52941
46.448,0.52941
46.456,0.52549
46.464,0.52549
46.472,0.52941
46.48,0.51961
46.488,0.51961
46.496,0.5098
46.504,0.5098
46.512,0.50588
46.52,0.51569
46.528,0.51569
46.536,0.51569
46.544,0.5098
46.552,0.51961
46.56,0.51569
46.568,0.51961
46.576,0.53922
46.584,0.56471
46.592,0.58039
46.6,0.58431
46.608,0.57451
46.616,0.5451
46.624,0.51569
46.632,0.49412
46.64,0.48039
46.648,0.47059
46.656,0.47451
46.664,0.48039
46.672,0.5
46.68,0.5
46.688,0.5
46.696,0.49412
46.704,0.49412
46.712,0.57451
46.72,0.6
46.728,0.3
46.736,-0.31176
46.744,-0.50196
46.752,-0.015686
46.76,0.36471
46.768,0.4549
46.776,0.47451
46.784,0.5
46.792,0.5098
46.8,0.51961
46.808,0.51961
46.816,0.5098
46.824,0.49412
46.832,0.48431
46.84,0.49412
46.848,0.49412
46.856,0.5
46.864,0.48039
46.872,0.47451
46.88,0.47451
46.888,0.48431
46.896,0.4902
46.904,0.48039
46.912,0.47451
46.92,0.47059
46.928,0.4549
46.936,0.44902
46.944,0.44902
46.952,0.4451
46.96,0.44902
46.968,0.43922
46.976,0.44902
46.984,0.44902
46.992,0.46078
47,0.4549
47.008,0.47451
47.016,0.47059
47.024,0.49412
47.032,0.5
47.04,0.51569
47.048,0.51961
47.056,0.52549
47.064,0.51961
47.072,0.51961
47.08,0.51569
47.088,0.51961
47.096,0.51961
47.104,0.51961
47.112,0.51569
47.12,0.51569
47.128,0.5
47.136,0.4902
47.144,0.5
47.152,0.50588
47.16,0.5098
47.168,0.51961
47.176,0.52549
47.184,0.52941
47.192,0.52549
47.2,0.51961
47.208,0.51961
47.216,0.51569
47.224,0.51961
47.232,0.53922
47.24,0.56471
47.248,0.58431
47.256,0.6
47.264,0.58039
47.272,0.5549
47.28,0.51961
47.288,0.5098
47.296,0.49412
47.304,0.5
47.312,0.5098
47.32,0.51961
47.328,0.53529
47.336,0.53922
47.344,0.5451
47.352,0.53529
47.36,0.53922
47.368,0.63529
47.376,0.6451
47.384,0.25882
47.392,-0.38824
47.4,-0.50196
47.408,0.084314
47.416,0.42941
47.424,0.51569
47.432,0.53922
47.44,0.56078
47.448,0.57059
47.456,0.58039
47.464,0.58431
47.472,0.57059
47.48,0.55098
47.488,0.5451
47.496,0.5549
47.504,0.56078
47.512,0.55098
47.52,0.53922
47.528,0.52549
47.536,0.51961
47.544,0.51961
47.552,0.51961
47.56,0.51961
47.568,0.5098
47.576,0.5
47.584,0.5
47.592,0.5
47.6,0.4902
47.608,0.4902
47.616,0.48431
47.624,0.49412
47.632,0.49412
47.64,0.49412
47.648,0.4902
47.656,0.4902
47.664,0.4902
47.672,0.5
47.68,0.5
47.688,0.51569
47.696,0.51961
47.704,0.52941
47.712,0.53529
47.72,0.53529
47.728,0.53529
47.736,0.52549
47.744,0.52549
47.752,0.52941
47.76,0.53529
47.768,0.52941
47.776,0.52941
47.784,0.52941
47.792,0.52941
47.8,0.52549
47.808,0.51961
47.816,0.51569
47.824,0.51569
47.832,0.51569
47.84,0.51961
47.848,0.51961
47.856,0.51961
47.864,0.51961
47.872,0.51961
47.88,0.51961
47.888,0.53922
47.896,0.56078
47.904,0.57451
47.912,0.57451
47.92,0.56471
47.928,0.53529
47.936,0.5098
47.944,0.4902
47.952,0.46078
47.96,0.4549
47.968,0.46078
47.976,0.47451
47.984,0.48431
47.992,0.49412
48,0.4902
48.008,0.5
48.016,0.4902
48.024,0.58039
48.032,0.61569
48.04,0.3451
48.048,-0.34706
48.056,-0.50196
48.064,-0.15098
48.072,0.29412
48.08,0.41961
48.088,0.46471
48.096,0.4902
48.104,0.51569
48.112,0.51961
48.12,0.52549
48.128,0.51569
48.136,0.50588
48.144,0.5
48.152,0.5
48.16,0.50588
48.168,0.51569
48.176,0.50588
48.184,0.49412
48.192,0.49412
48.2,0.5
48.208,0.5
48.216,0.49412
48.224,0.4902
48.232,0.4902
48.24,0.49412
48.248,0.49412
48.256,0.5
48.264,0.49412
48.272,0.5
48.28,0.5
48.288,0.5
48.296,0.5
48.304,0.5
48.312,0.49412
48.32,0.49412
48.328,0.4902
48.336,0.49412
48.344,0.5
48.352,0.50588
48.36,0.5098
48.368,0.51961
48.376,0.52549
48.384,0.51961
48.392,0.52549
48.4,0.51961
48.408,0.52549
48.416,0.51961
48.424,0.52549
48.432,0.51961
48.44,0.51961
48.448,0.51961
48.456,0.51961
48.464,0.51569
48.472,0.51961
48.48,0.51961
48.488,0.51961
48.496,0.51961
48.504,0.51961
48.512,0.51961
48.52,0.51961
48.528,0.52549
48.536,0.51961
48.544,0.55098
48.552,0.57059
48.56,0.58431
48.568,0.5902
48.576,0.56471
48.584,0.55098
48.592,0.51961
48.6,0.5
48.608,0.48039
48.616,0.47451
48.624,0.48431
48.632,0.49412
48.64,0.50588
48.648,0.50588
48.656,0.5098
48.664,0.5098
48.672,0.51961
48.68,0.61569
48.688,0.61961
48.696,0.22941
48.704,-0.45294
48.712,-0.50196
48.72,0.013725
48.728,0.3549
48.736,0.4451
48.744,0.4902
48.752,0.51569
48.76,0.52941
48.768,0.5451
48.776,0.5451
48.784,0.52941
48.792,0.51961
48.8,0.51961
48.808,0.51961
48.816,0.51961
48.824,0.52549
48.832,0.51569
48.84,0.5098
48.848,0.50588
48.856,0.51569
48.864,0.51569
48.872,0.51569
48.88,0.5
48.888,0.5
48.896,0.5
48.904,0.5
48.912,0.5
48.92,0.50588
48.928,0.50588
48.936,0.5098
48.944,0.50588
48.952,0.50588
48.96,0.5
48.968,0.5
48.976,0.49412
48.984,0.49412
48.992,0.5
49,0.50588
49.008,0.5098
49.016,0.5098
49.024,0.51961
49.032,0.51961
49.04,0.51961
49.048,0.51961
49.056,0.51569
49.064,0.50588
49.072,0.5098
49.08,0.5
49.088,0.5
49.096,0.5
49.104,0.5
49.112,0.49412
49.12,0.5
49.128,0.49412
49.136,0.4902
49.144,0.49412
49.152,0.5098
49.16,0.52549
49.168,0.51961
49.176,0.51961
49.184,0.51569
49.192,0.52941
49.2,0.5549
49.208,0.57451
49.216,0.58431
49.224,0.5902
49.232,0.56471
49.24,0.5451
49.248,0.51569
49.256,0.49412
49.264,0.47451
49.272,0.47451
49.28,0.47451
49.288,0.4902
49.296,0.5
49.304,0.5098
49.312,0.5
49.32,0.5098
49.328,0.51961
49.336,0.61961
49.344,0.5549
49.352,0.15882
49.36,-0.46863
49.368,-0.50196
49.376,0.11961
49.384,0.39412
49.392,0.44902
49.4,0.48039
49.408,0.5
49.416,0.5098
49.424,0.51961
49.432,0.51961
49.44,0.5098
49.448,0.49412
49.456,0.49412
49.464,0.50588
49.472,0.5098
49.48,0.5
49.488,0.49412
49.496,0.48039
49.504,0.49412
49.512,0.4902
49.52,0.49412
49.528,0.48431
49.536,0.48431
49.544,0.47451
49.552,0.47451
49.56,0.46471
49.568,0.46078
49.576,0.4549
49.584,0.44902
49.592,0.46078
49.6,0.4549
49.608,0.46471
49.616,0.46471
49.624,0.47059
49.632,0.4549
49.64,0.47451
49.648,0.48039
49.656,0.5
49.664,0.5
49.672,0.5098
49.68,0.51569
49.688,0.51961
49.696,0.50588
49.704,0.50588
49.712,0.50588
49.72,0.5098
49.728,0.50588
49.736,0.50588
49.744,0.5
49.752,0.50588
49.76,0.5
49.768,0.5
49.776,0.5
49.784,0.5
49.792,0.5
49.8,0.5
49.808,0.5
49.816,0.5
49.824,0.5
49.832,0.5
49.84,0.5
49.848,0.50588
49.856,0.52941
49.864,0.5451
49.872,0.56078
49.88,0.56471
49.888,0.53922
49.896,0.50588
49.904,0.47451
49.912,0.4549
49.92,0.44902
49.928,0.44902
49.936,0.46078
49.944,0.47451
49.952,0.48431
49.96,0.48431
49.968,0.48039
49.976,0.48431
49.984,0.48039
49.992,0.6
50,0.5
50.008,0.0039216
50.016,-0.50196
50.024,-0.38824
50.032,0.1549
50.04,0.40392
50.048,0.47059
50.056,0.50588
50.064,0.52549
50.072,0.53922
50.08,0.5451
50.088,0.5451
50.096,0.52549
50.104,0.50588
50.112,0.5
50.12,0.5098
50.128,0.5
50.136,0.50588
50.144,0.5
50.152,0.5
50.16,0.51569
50.168,0.51961
50.176,0.52549
50.184,0.51569
50.192,0.5
50.2,0.5
50.208,0.5
50.216,0.49412
50.224,0.49412
50.232,0.4902
50.24,0.5
50.248,0.5
50.256,0.5098
50.264,0.5098
50.272,0.51961
50.28,0.52549
50.288,0.53529
50.296,0.5451
50.304,0.5549
50.312,0.56471
50.32,0.57059
50.328,0.57451
50.336,0.58039
50.344,0.57451
50.352,0.57451
50.36,0.57059
50.368,0.57059
50.376,0.57451
50.384,0.57059
50.392,0.57059
50.4,0.57059
50.408,0.57059
50.416,0.57059
50.424,0.56471
50.432,0.56078
50.44,0.56471
50.448,0.55098
50.456,0.56078
50.464,0.5549
50.472,0.5549
50.48,0.5451
50.488,0.5451
50.496,0.5451
50.504,0.55098
50.512,0.56471
50.52,0.58431
50.528,0.6
50.536,0.6098
50.544,0.58431
50.552,0.56078
50.56,0.51961
50.568,0.5
50.576,0.47451
50.584,0.47451
50.592,0.47451
50.6,0.49412
50.608,0.50588
50.616,0.50588
50.624,0.5098
50.632,0.50588
50.64,0.50588
50.648,0.6
50.656,0.63529
50.664,0.2902
50.672,-0.40196
50.68,-0.50196
50.688,-0.10196
50.696,0.30392
50.704,0.42941
50.712,0.47059
50.72,0.49412
50.728,0.5098
50.736,0.52549
50.744,0.52549
50.752,0.51569
50.76,0.5
50.768,0.5
50.776,0.5
50.784,0.51569
50.792,0.51961
50.8,0.5098
50.808,0.49412
50.816,0.4902
50.824,0.4902
50.832,0.4902
50.84,0.4902
50.848,0.48431
50.856,0.48039
50.864,0.48039
50.872,0.4902
50.88,0.4902
50.888,0.49412
50.896,0.49412
50.904,0.5
50.912,0.5
50.92,0.5
50.928,0.49412
50.936,0.49412
50.944,0.4902
50.952,0.48431
50.96,0.49412
50.968,0.5
50.976,0.5
50.984,0.50588
50.992,0.51569
51,0.51569
51.008,0.51961
51.016,0.51961
51.024,0.51961
51.032,0.51569
51.04,0.51961
51.048,0.51569
51.056,0.51961
51.064,0.51961
51.072,0.51961
51.08,0.50588
51.088,0.5098
51.096,0.50588
51.104,0.51569
51.112,0.5098
51.12,0.51961
51.128,0.51569
51.136,0.51961
51.144,0.51569
51.152,0.51961
51.16,0.51961
51.168,0.53529
51.176,0.55098
51.184,0.57059
51.192,0.58431
51.2,0.57451
51.208,0.55098
51.216,0.52549
51.224,0.5
51.232,0.47451
51.24,0.46471
51.248,0.47059
51.256,0.4902
51.264,0.49412
51.272,0.5
51.28,0.5
51.288,0.5
51.296,0.4902
51.304,0.55098
51.312,0.60588
51.32,0.4451
51.328,-0.16275
51.336,-0.50196
51.344,-0.30784
51.352,0.21373
51.36,0.40392
51.368,0.4549
51.376,0.4902
51.384,0.51569
51.392,0.52941
51.4,0.53922
51.408,0.52941
51.416,0.51569
51.424,0.5098
51.432,0.5098
51.44,0.51961
51.448,0.51961
51.456,0.51961
51.464,0.50588
51.472,0.5
51.48,0.5
51.488,0.5098
51.496,0.50588
51.504,0.50588
51.512,0.49412
51.52,0.5
51.528,0.5
51.536,0.5
51.544,0.5
51.552,0.5
51.56,0.5
51.568,0.5
51.576,0.5
51.584,0.5
51.592,0.4902
51.6,0.4902
51.608,0.4902
51.616,0.49412
51.624,0.5
51.632,0.5
51.64,0.5098
51.648,0.5098
51.656,0.51961
51.664,0.51961
51.672,0.51961
51.68,0.51569
51.688,0.51961
51.696,0.51569
51.704,0.51961
51.712,0.51569
51.72,0.51961
51.728,0.51569
51.736,0.51961
51.744,0.51569
51.752,0.51569
51.76,0.51569
51.768,0.51961
51.776,0.51569
51.784,0.51961
51.792,0.51961
51.8,0.51961
51.808,0.51961
51.816,0.51569
51.824,0.52941
51.832,0.55098
51.84,0.56471
51.848,0.57059
51.856,0.58039
51.864,0.53922
51.872,0.52549
51.88,0.49412
51.888,0.47059
51.896,0.44902
51.904,0.44902
51.912,0.4549
51.92,0.47451
51.928,0.47451
51.936,0.48039
51.944,0.48431
51.952,0.48431
51.96,0.48039
51.968,0.60588
51.976,0.50588
51.984,0.023529
51.992,-0.50196
52,-0.39804
52.008,0.15882
52.016,0.40392
52.024,0.46078
52.032,0.49412
52.04,0.51569
52.048,0.52941
52.056,0.53922
52.064,0.53529
52.072,0.51961
52.08,0.5098
52.088,0.51569
52.096,0.51961
52.104,0.52941
52.112,0.51961
52.12,0.5098
52.128,0.5
52.136,0.5098
52.144,0.5098
52.152,0.51569
52.16,0.5
52.168,0.49412
52.176,0.48039
52.184,0.48039
52.192,0.48039
52.2,0.47451
52.208,0.47451
52.216,0.47451
52.224,0.47451
52.232,0.47451
52.24,0.47451
52.248,0.47451
52.256,0.47451
52.264,0.47451
52.272,0.48431
52.28,0.4902
52.288,0.5
52.296,0.50588
52.304,0.51569
52.312,0.51961
52.32,0.51961
52.328,0.51569
52.336,0.51569
52.344,0.50588
52.352,0.51569
52.36,0.5098
52.368,0.51569
52.376,0.51569
52.384,0.51961
52.392,0.51961
52.4,0.51569
52.408,0.5098
52.416,0.51569
52.424,0.5098
52.432,0.5098
52.44,0.5098
52.448,0.5098
52.456,0.51569
52.464,0.50588
52.472,0.5098
52.48,0.51569
52.488,0.53922
52.496,0.5549
52.504,0.57059
52.512,0.57451
52.52,0.56078
52.528,0.52941
52.536,0.5
52.544,0.48431
52.552,0.47059
52.56,0.46078
52.568,0.47451
52.576,0.48431
52.584,0.5
52.592,0.5
52.6,0.5
52.608,0.4902
52.616,0.48431
52.624,0.60588
52.632,0.52941
52.64,0.10392
52.648,-0.50196
52.656,-0.44706
52.664,0.11373
52.672,0.4
52.68,0.4549
52.688,0.4902
52.696,0.5
52.704,0.51569
52.712,0.51569
52.72,0.51961
52.728,0.5098
52.736,0.5
52.744,0.5
52.752,0.50588
52.76,0.5098
52.768,0.50588
52.776,0.49412
52.784,0.4902
52.792,0.49412
52.8,0.5
52.808,0.5
52.816,0.5
52.824,0.48431
52.832,0.47451
52.84,0.46471
52.848,0.4451
52.856,0.43529
52.864,0.43922
52.872,0.4549
52.88,0.46078
52.888,0.47451
52.896,0.48039
52.904,0.49412
52.912,0.49412
52.92,0.5
52.928,0.50588
52.936,0.51569
52.944,0.51569
52.952,0.52941
52.96,0.53922
52.968,0.55098
52.976,0.5451
52.984,0.5451
52.992,0.55098
53,0.5451
53.008,0.56078
53.016,0.5549
53.024,0.56078
53.032,0.5549
53.04,0.5549
53.048,0.56471
53.056,0.57059
53.064,0.57059
53.072,0.57059
53.08,0.56471
53.088,0.57059
53.096,0.57059
53.104,0.57059
53.112,0.57059
53.12,0.57059
53.128,0.57059
53.136,0.57059
53.144,0.58431
53.152,0.6098
53.16,0.62549
53.168,0.64118
53.176,0.62549
53.184,0.6
53.192,0.57059
53.2,0.55098
53.208,0.52549
53.216,0.51569
53.224,0.51569
53.232,0.51961
53.24,0.53922
53.248,0.53922
53.256,0.53529
53.264,0.52941
53.272,0.52941
53.28,0.58431
53.288,0.64118
53.296,0.44902
53.304,-0.14706
53.312,-0.50196
53.32,-0.25686
53.328,0.2549
53.336,0.43529
53.344,0.47451
53.352,0.50588
53.36,0.51961
53.368,0.5451
53.376,0.5451
53.384,0.5451
53.392,0.52549
53.4,0.51961
53.408,0.51961
53.416,0.51961
53.424,0.52549
53.432,0.52549
53.44,0.51569
53.448,0.50588
53.456,0.5098
53.464,0.50588
53.472,0.5098
53.48,0.5
53.488,0.5
53.496,0.4902
53.504,0.5
53.512,0.49412
53.52,0.5
53.528,0.49412
53.536,0.5
53.544,0.49412
53.552,0.5
53.56,0.4902
53.568,0.49412
53.576,0.48431
53.584,0.4902
53.592,0.4902
53.6,0.5
53.608,0.5
53.616,0.5098
53.624,0.51961
53.632,0.51961
53.64,0.51961
53.648,0.51961
53.656,0.51961
53.664,0.51961
53.672,0.52549
53.68,0.51961
53.688,0.51961
53.696,0.51961
53.704,0.51961
53.712,0.51569
53.72,0.51961
53.728,0.51569
53.736,0.51961
53.744,0.51961
53.752,0.51961
53.76,0.51961
53.768,0.51569
53.776,0.51961
53.784,0.52549
53.792,0.51961
53.8,0.51961
53.808,0.5451
53.816,0.57059
53.824,0.58431
53.832,0.59608
53.84,0.58431
53.848,0.56078
53.856,0.52941
53.864,0.50588
53.872,0.48039
53.88,0.47451
53.888,0.48039
53.896,0.4902
53.904,0.5
53.912,0.5
53.92,0.50588
53.928,0.5
53.936,0.5
53.944,0.57451
53.952,0.61569
53.96,0.37059
53.968,-0.30196
53.976,-0.50196
53.984,-0.18627
53.992,0.27451
54,0.41961
54.008,0.47059
54.016,0.49412
54.024,0.51569
54.032,0.52941
54.04,0.53922
54.048,0.52941
54.056,0.51569
54.064,0.50588
54.072,0.5098
54.08,0.51961
54.088,0.51961
54.096,0.51569
54.104,0.50588
54.112,0.5
54.12,0.5098
54.128,0.5098
54.136,0.51569
54.144,0.5
54.152,0.5
54.16,0.5
54.168,0.5
54.176,0.5
54.184,0.50588
54.192,0.50588
54.2,0.5098
54.208,0.5
54.216,0.5
54.224,0.5
54.232,0.5
54.24,0.4902
54.248,0.4902
54.256,0.5
54.264,0.50588
54.272,0.51569
54.28,0.51569
54.288,0.51569
54.296,0.51569
54.304,0.51961
54.312,0.5098
54.32,0.51569
54.328,0.51569
54.336,0.51961
54.344,0.51569
54.352,0.51961
54.36,0.51569
54.368,0.5098
54.376,0.51961
54.384,0.51569
54.392,0.50588
54.4,0.50588
54.408,0.50588
54.416,0.50588
54.424,0.50588
54.432,0.5098
54.44,0.50588
54.448,0.5
54.456,0.5
54.464,0.5
54.472,0.52549
54.48,0.5451
54.488,0.56471
54.496,0.57059
54.504,0.56078
54.512,0.52941
54.52,0.50588
54.528,0.48431
54.536,0.46471
54.544,0.4549
54.552,0.4549
54.56,0.47059
54.568,0.48431
54.576,0.48431
54.584,0.4902
54.592,0.4902
54.6,0.49412
54.608,0.58039
54.616,0.61569
54.624,0.31961
54.632,-0.34314
54.64,-0.50196
54.648,-0.092157
54.656,0.3098
54.664,0.42549
54.672,0.47059
54.68,0.49412
54.688,0.51961
54.696,0.52941
54.704,0.53922
54.712,0.52549
54.72,0.51569
54.728,0.5098
54.736,0.51569
54.744,0.51961
54.752,0.52549
54.76,0.51569
54.768,0.50588
54.776,0.5
54.784,0.5
54.792,0.5
54.8,0.5
54.808,0.49412
54.816,0.48431
54.824,0.48431
54.832,0.48431
54.84,0.48039
54.848,0.48431
54.856,0.48039
54.864,0.47451
54.872,0.47451
54.88,0.47451
54.888,0.47451
54.896,0.46471
54.904,0.46471
54.912,0.46471
54.92,0.47451
54.928,0.48039
54.936,0.49412
54.944,0.5
54.952,0.5098
54.96,0.5098
54.968,0.5
54.976,0.5
54.984,0.5
54.992,0.4902
55,0.5
55.008,0.5
55.016,0.5
55.024,0.50588
55.032,0.5098
55.04,0.5098
55.048,0.50588
55.056,0.5098
55.064,0.50588
55.072,0.5098
55.08,0.50588
55.088,0.51961
55.096,0.51569
55.104,0.51569
55.112,0.51569
55.12,0.51961
55.128,0.51961
55.136,0.53922
55.144,0.5549
55.152,0.58039
55.16,0.58431
55.168,0.58039
55.176,0.55098
55.184,0.51569
55.192,0.49412
55.2,0.47451
55.208,0.46078
55.216,0.4549
55.224,0.47451
55.232,0.4902
55.24,0.49412
55.248,0.5
55.256,0.5
55.264,0.5
55.272,0.5451
55.28,0.60588
55.288,0.44902
55.296,-0.11176
55.304,-0.50196
55.312,-0.23725
55.32,0.26471
55.328,0.42941
55.336,0.46471
55.344,0.48431
55.352,0.5
55.36,0.5098
55.368,0.51961
55.376,0.52549
55.384,0.5098
55.392,0.4902
55.4,0.5
55.408,0.5
55.416,0.50588
55.424,0.49412
55.432,0.4902
55.44,0.48039
55.448,0.47451
55.456,0.48431
55.464,0.47451
55.472,0.47451
55.48,0.46078
55.488,0.44902
55.496,0.4451
55.504,0.4451
55.512,0.43922
55.52,0.4451
55.528,0.4451
55.536,0.44902
55.544,0.44902
55.552,0.44902
55.56,0.4549
55.568,0.46471
55.576,0.46078
55.584,0.47451
55.592,0.48039
55.6,0.49412
55.608,0.50588
55.616,0.51569
55.624,0.51961
55.632,0.51569
55.64,0.51961
55.648,0.51961
55.656,0.51961
55.664,0.51961
55.672,0.52549
55.68,0.51569
55.688,0.5098
55.696,0.50588
55.704,0.51569
55.712,0.5098
55.72,0.51569
55.728,0.5098
55.736,0.5098
55.744,0.50588
55.752,0.50588
55.76,0.50588
55.768,0.51569
55.776,0.51569
55.784,0.51961
55.792,0.51961
55.8,0.52549
55.808,0.5451
55.816,0.56471
55.824,0.57451
55.832,0.58039
55.84,0.53922
55.848,0.50588
55.856,0.48039
55.864,0.48039
55.872,0.47451
55.88,0.47451
55.888,0.49412
55.896,0.5
55.904,0.5098
55.912,0.5
55.92,0.5
55.928,0.48431
55.936,0.50588
55.944,0.6
55.952,0.52549
55.96,0.078431
55.968,-0.50196
55.976,-0.44706
55.984,0.12353
55.992,0.4098
56,0.46471
56.008,0.4902
56.016,0.50588
56.024,0.51961
56.032,0.52941
56.04,0.53529
56.048,0.52549
56.056,0.51961
56.064,0.51569
56.072,0.52549
56.08,0.53529
56.088,0.52549
56.096,0.51961
56.104,0.51961
56.112,0.52549
56.12,0.5451
56.128,0.53922
56.136,0.53922
56.144,0.52941
56.152,0.52549
56.16,0.51961
56.168,0.51569
56.176,0.5
56.184,0.50588
56.192,0.5098
56.2,0.51961
56.208,0.51961
56.216,0.52941
56.224,0.53529
56.232,0.53529
56.24,0.53922
56.248,0.5549
56.256,0.57059
56.264,0.57451
56.272,0.58431
56.28,0.58431
56.288,0.5902
56.296,0.5902
56.304,0.5902
56.312,0.58431
56.32,0.5902
56.328,0.58431
56.336,0.5902
56.344,0.57451
56.352,0.58039
56.36,0.57059
56.368,0.57451
56.376,0.57059
56.384,0.57451
56.392,0.57059
56.4,0.57059
56.408,0.56471
56.416,0.56471
56.424,0.56471
56.432,0.56078
56.44,0.5549
56.448,0.5549
56.456,0.55098
56.464,0.55098
56.472,0.56078
56.48,0.57059
56.488,0.5902
56.496,0.59608
56.504,0.60588
56.512,0.56471
56.52,0.5451
56.528,0.51961
56.536,0.49412
56.544,0.47451
56.552,0.48039
56.56,0.4902
56.568,0.50588
56.576,0.5098
56.584,0.51569
56.592,0.51569
56.6,0.51569
56.608,0.53922
56.616,0.64118
56.624,0.52941
56.632,0.029412
56.64,-0.50196
56.648,-0.42745
56.656,0.14902
56.664,0.4098
56.672,0.47059
56.68,0.50588
56.688,0.51961
56.696,0.53529
56.704,0.5451
56.712,0.5451
56.72,0.52941
56.728,0.51961
56.736,0.51961
56.744,0.52549
56.752,0.53529
56.76,0.52549
56.768,0.51961
56.776,0.50588
56.784,0.5098
56.792,0.5098
56.8,0.5098
56.808,0.5
56.816,0.50588
56.824,0.50588
56.832,0.5
56.84,0.50588
56.848,0.5098
56.856,0.5
56.864,0.5
56.872,0.50588
56.88,0.5
56.888,0.5098
56.896,0.5
56.904,0.5
56.912,0.5
56.92,0.5098
56.928,0.50588
56.936,0.51569
56.944,0.51961
56.952,0.52549
56.96,0.52549
56.968,0.52549
56.976,0.51961
56.984,0.52549
56.992,0.52941
57,0.52549
57.008,0.52941
57.016,0.52549
57.024,0.52549
57.032,0.52549
57.04,0.52549
57.048,0.52549
57.056,0.51961
57.064,0.51961
57.072,0.51569
57.08,0.51569
57.088,0.51961
57.096,0.51569
57.104,0.51961
57.112,0.51961
57.12,0.51961
57.128,0.51961
57.136,0.52549
57.144,0.53529
57.152,0.56078
57.16,0.58039
57.168,0.5902
57.176,0.57451
57.184,0.55098
57.192,0.52549
57.2,0.5098
57.208,0.48039
57.216,0.47451
57.224,0.47451
57.232,0.4902
57.24,0.5
57.248,0.50588
57.256,0.5
57.264,0.49412
57.272,0.49412
57.28,0.5549
57.288,0.6098
57.296,0.42549
57.304,-0.17647
57.312,-0.50196
57.32,-0.25686
57.328,0.23922
57.336,0.41569
57.344,0.47059
57.352,0.5
57.36,0.5098
57.368,0.53529
57.376,0.53529
57.384,0.53922
57.392,0.51961
57.4,0.51569
57.408,0.5098
57.416,0.51961
57.424,0.52549
57.432,0.52549
57.44,0.5098
57.448,0.50588
57.456,0.5
57.464,0.50588
57.472,0.5098
57.48,0.5
57.488,0.4902
57.496,0.48431
57.504,0.49412
57.512,0.48431
57.52,0.4902
57.528,0.4902
57.536,0.4902
57.544,0.4902
57.552,0.49412
57.56,0.4902
57.568,0.49412
57.576,0.4902
57.584,0.49412
57.592,0.4902
57.6,0.5
57.608,0.5
57.616,0.5098
57.624,0.51569
57.632,0.51961
57.64,0.51961
57.648,0.51961
57.656,0.51569
57.664,0.51961
57.672,0.51961
57.68,0.51569
57.688,0.51569
57.696,0.51961
57.704,0.51961
57.712,0.51961
57.72,0.51961
57.728,0.51569
57.736,0.51961
57.744,0.51569
57.752,0.51961
57.76,0.51961
57.768,0.51961
57.776,0.51961
57.784,0.51961
57.792,0.51961
57.8,0.52549
57.808,0.52941
57.816,0.55098
57.824,0.57059
57.832,0.58431
57.84,0.5902
57.848,0.5549
57.856,0.53529
57.864,0.5
57.872,0.47451
57.88,0.46471
57.888,0.47059
57.896,0.47451
57.904,0.48431
57.912,0.4902
57.92,0.5
57.928,0.4902
57.936,0.5
57.944,0.4902
57.952,0.60588
57.96,0.51569
57.968,0.052941
57.976,-0.50196
57.984,-0.42745
57.992,0.11961
58,0.38039
58.008,0.43922
58.016,0.47451
58.024,0.5
58.032,0.51961
58.04,0.52549
58.048,0.51961
58.056,0.51569
58.064,0.50588
58.072,0.5
58.08,0.5098
58.088,0.51569
58.096,0.5098
58.104,0.49412
58.112,0.48039
58.12,0.47451
58.128,0.47451
58.136,0.47451
58.144,0.47059
58.152,0.46078
58.16,0.4549
58.168,0.47059
58.176,0.46078
58.184,0.46471
58.192,0.46471
58.2,0.47451
58.208,0.47059
58.216,0.47451
58.224,0.46471
58.232,0.47451
58.24,0.46471
58.248,0.47059
58.256,0.47059
58.264,0.48039
58.272,0.49412
58.28,0.50588
58.288,0.51569
58.296,0.51961
58.304,0.51961
58.312,0.51961
58.32,0.52549
58.328,0.51961
58.336,0.51961
58.344,0.51961
58.352,0.51961
58.36,0.51961
58.368,0.51961
58.376,0.51569
58.384,0.51961
58.392,0.51569
58.4,0.51961
58.408,0.51569
58.416,0.51569
58.424,0.5098
58.432,0.51569
58.44,0.5098
58.448,0.5098
58.456,0.50588
58.464,0.51569
58.472,0.51961
58.48,0.53922
58.488,0.56078
58.496,0.57451
58.504,0.58039
58.512,0.55098
58.52,0.52549
58.528,0.49412
58.536,0.47451
58.544,0.4549
58.552,0.46078
58.56,0.47059
58.568,0.48039
58.576,0.4902
58.584,0.4902
58.592,0.48431
58.6,0.48039
58.608,0.4902
58.616,0.5902
58.624,0.51961
58.632,0.12353
58.64,-0.49216
58.648,-0.50196
58.656,0.1098
58.664,0.39412
58.672,0.4451
58.68,0.47059
58.688,0.47451
58.696,0.49412
58.704,0.50588
58.712,0.5098
58.72,0.5
58.728,0.48431
58.736,0.48431
58.744,0.4902
58.752,0.5
58.76,0.4902
58.768,0.47451
58.776,0.47059
58.784,0.47059
58.792,0.47059
58.8,0.47451
58.808,0.47059
58.816,0.46471
58.824,0.44902
58.832,0.44902
58.84,0.4451
58.848,0.43922
58.856,0.43922
58.864,0.43529
58.872,0.4451
58.88,0.4451
58.888,0.4451
58.896,0.44902
58.904,0.4549
58.912,0.46471
58.92,0.47451
58.928,0.47451
58.936,0.49412
58.944,0.5
58.952,0.51569
58.96,0.51569
58.968,0.51961
58.976,0.51569
58.984,0.51961
58.992,0.51569
59,0.51961
59.008,0.51569
59.016,0.51961
59.024,0.51569
59.032,0.51961
59.04,0.50588
59.048,0.51569
59.056,0.51961
59.064,0.51961
59.072,0.51961
59.08,0.51569
59.088,0.51961
59.096,0.5098
59.104,0.5
59.112,0.5
59.12,0.50588
59.128,0.51569
59.136,0.52941
59.144,0.55098
59.152,0.58039
59.16,0.5902
59.168,0.5902
59.176,0.5549
59.184,0.52549
59.192,0.5
59.2,0.48039
59.208,0.46471
59.216,0.47059
59.224,0.47451
59.232,0.49412
59.24,0.5
59.248,0.50588
59.256,0.5098
59.264,0.5098
59.272,0.52941
59.28,0.62549
59.288,0.55098
59.296,0.1098
59.304,-0.48235
59.312,-0.50196
59.32,0.1549
59.328,0.43922
59.336,0.5
59.344,0.51961
59.352,0.5451
59.36,0.55098
59.368,0.57059
59.376,0.57059
59.384,0.56471
59.392,0.55098
59.4,0.5549
59.408,0.56471
59.416,0.57059
59.424,0.56078
59.432,0.55098
59.44,0.53922
59.448,0.5451
59.456,0.5451
59.464,0.55098
59.472,0.5451
59.48,0.53529
59.488,0.52549
59.496,0.51961
59.504,0.51569
59.512,0.5098
59.52,0.5
59.528,0.5
59.536,0.5098
59.544,0.5098
59.552,0.51569
59.56,0.5098
59.568,0.51569
59.576,0.51569
59.584,0.52549
59.592,0.52549
59.6,0.5451
59.608,0.5451
59.616,0.5549
59.624,0.5549
59.632,0.5549
59.64,0.5451
59.648,0.5451
59.656,0.5451
59.664,0.5451
59.672,0.5451
59.68,0.5451
59.688,0.5451
59.696,0.5451
59.704,0.5451
59.712,0.5451
59.72,0.53922
59.728,0.53529
59.736,0.53922
59.744,0.53529
59.752,0.53529
59.76,0.52941
59.768,0.53922
59.776,0.53922
59.784,0.53922
59.792,0.53529
59.8,0.53922
59.808,0.55098
59.816,0.57059
59.824,0.5902
59.832,0.60588
59.84,0.58039
59.848,0.5549
59.856,0.52549
59.864,0.50588
59.872,0.48431
59.88,0.47451
59.888,0.47451
59.896,0.4902
59.904,0.5
59.912,0.5
59.92,0.50588
59.928,0.5
59.936,0.5
59.944,0.59608
59.952,0.62941
59.96,0.33529
59.968,-0.36275
59.976,-0.50196
59.984,-0.14118
59.992,0.29412
60,0.42941
60.008,0.47059
60.016,0.5
60.024,0.51961
60.032,0.53922
60.04,0.53922
60.048,0.53922
60.056,0.51961
60.064,0.51961
60.072,0.51961
60.08,0.52941
60.088,0.53529
60.096,0.52941
60.104,0.51569
60.112,0.51569
60.12,0.51569
60.128,0.5098
60.136,0.51961
60.144,0.5098
60.152,0.50588
60.16,0.5
60.168,0.5098
60.176,0.50588
60.184,0.5098
60.192,0.50588
60.2,0.5098
60.208,0.5098
60.216,0.5098
60.224,0.5
60.232,0.5
60.24,0.49412
60.248,0.5
60.256,0.5
60.264,0.5
60.272,0.50588
60.28,0.5098
60.288,0.51569
60.296,0.51569
60.304,0.51961
60.312,0.51569
60.32,0.51961
60.328,0.51961
60.336,0.51961
60.344,0.51961
60.352,0.52549
60.36,0.51961
60.368,0.52549
60.376,0.51961
60.384,0.52941
60.392,0.51961
60.4,0.51961
60.408,0.51961
60.416,0.52549
60.424,0.52549
60.432,0.51961
60.44,0.51961
60.448,0.51961
60.456,0.51961
60.464,0.52549
60.472,0.5451
60.48,0.56471
60.488,0.58039
60.496,0.5902
60.504,0.57451
60.512,0.5451
60.52,0.51961
60.528,0.5
60.536,0.47451
60.544,0.47059
60.552,0.47451
60.56,0.4902
60.568,0.5
60.576,0.50588
60.584,0.5098
60.592,0.5
60.6,0.5
60.608,0.58039
60.616,0.61961
60.624,0.38431
60.632,-0.25686
60.64,-0.50196
60.648,-0.18235
60.656,0.27451
60.664,0.42549
60.672,0.46078
60.68,0.49412
60.688,0.51569
60.696,0.52941
60.704,0.53922
60.712,0.52941
60.72,0.51569
60.728,0.50588
60.736,0.5098
60.744,0.51569
60.752,0.51961
60.76,0.51569
60.768,0.5
60.776,0.5
60.784,0.5
60.792,0.5
60.8,0.5
60.808,0.49412
60.816,0.49412
60.824,0.4902
60.832,0.49412
60.84,0.49412
60.848,0.5
60.856,0.49412
60.864,0.5
60.872,0.5
60.88,0.5
60.888,0.5
60.896,0.5
60.904,0.4902
60.912,0.49412
60.92,0.5
60.928,0.5
60.936,0.5
60.944,0.50588
60.952,0.5098
60.96,0.5098
60.968,0.51569
60.976,0.5098
60.984,0.51569
60.992,0.50588
61,0.50588
61.008,0.5
61.016,0.50588
61.024,0.5
61.032,0.5
61.04,0.5
61.048,0.50588
61.056,0.5
61.064,0.50588
61.072,0.5
61.08,0.50588
61.088,0.5
61.096,0.50588
61.104,0.5098
61.112,0.51569
61.12,0.51961
61.128,0.51569
61.136,0.53922
61.144,0.56471
61.152,0.58039
61.16,0.58431
61.168,0.56471
61.176,0.5451
61.184,0.51569
61.192,0.49412
61.2,0.47451
61.208,0.47059
61.216,0.47451
61.224,0.48431
61.232,0.5
61.24,0.5
61.248,0.5
61.256,0.5
61.264,0.5
61.272,0.57451
61.28,0.6098
61.288,0.36471
61.296,-0.28235
61.304,-0.50196
61.312,-0.072549
61.32,0.33529
61.328,0.4451
61.336,0.47451
61.344,0.5
61.352,0.51961
61.36,0.52549
61.368,0.52941
61.376,0.51961
61.384,0.50588
61.392,0.5
61.4,0.50588
61.408,0.5098
61.416,0.51569
61.424,0.5
61.432,0.5
61.44,0.49412
61.448,0.49412
61.456,0.4902
61.464,0.49412
61.472,0.48039
61.48,0.47451
61.488,0.47059
61.496,0.46471
61.504,0.47059
61.512,0.46471
61.52,0.47059
61.528,0.46471
61.536,0.47059
61.544,0.47059
61.552,0.47451
61.56,0.46471
61.568,0.47451
61.576,0.47451
61.584,0.48039
61.592,0.49412
61.6,0.50588
61.608,0.5098
61.616,0.51961
61.624,0.51569
61.632,0.5098
61.64,0.50588
61.648,0.50588
61.656,0.5
61.664,0.50588
61.672,0.5
61.68,0.5098
61.688,0.5
61.696,0.5
61.704,0.5
61.712,0.5
61.72,0.5
61.728,0.5
61.736,0.5
61.744,0.5
61.752,0.5098
61.76,0.5
61.768,0.5098
61.776,0.5098
61.784,0.51569
61.792,0.5098
61.8,0.53529
61.808,0.5451
61.816,0.57059
61.824,0.56471
61.832,0.5451
61.84,0.51569
61.848,0.4902
61.856,0.47451
61.864,0.4549
61.872,0.44902
61.88,0.46471
61.888,0.47451
61.896,0.48039
61.904,0.47451
61.912,0.47451
61.92,0.47451
61.928,0.48431
61.936,0.58431
61.944,0.51961
61.952,0.12941
61.96,-0.50196
61.968,-0.50196
61.976,0.043137
61.984,0.3902
61.992,0.46078
62,0.49412
62.008,0.5098
62.016,0.51961
62.024,0.51569
62.032,0.51961
62.04,0.50588
62.048,0.5
62.056,0.5
62.064,0.5098
62.072,0.51961
62.08,0.51961
62.088,0.50588
62.096,0.5
62.104,0.5
62.112,0.50588
62.12,0.51569
62.128,0.50588
62.136,0.5
62.144,0.49412
62.152,0.5
62.16,0.5
62.168,0.4902
62.176,0.48039
62.184,0.48431
62.192,0.4902
62.2,0.5
62.208,0.50588
62.216,0.51569
62.224,0.51569
62.232,0.52549
62.24,0.53529
62.248,0.5451
62.256,0.5549
62.264,0.57059
62.272,0.57451
62.28,0.5902
62.288,0.58039
62.296,0.58431
62.304,0.58039
62.312,0.57451
62.32,0.57451
62.328,0.57451
62.336,0.57059
62.344,0.57059
62.352,0.57451
62.36,0.57059
62.368,0.57059
62.376,0.57059
62.384,0.57059
62.392,0.56471
62.4,0.56471
62.408,0.5549
62.416,0.56078
62.424,0.5549
62.432,0.56078
62.44,0.55098
62.448,0.5549
62.456,0.55098
62.464,0.57451
62.472,0.58431
62.48,0.60588
62.488,0.60588
62.496,0.5902
62.504,0.56471
62.512,0.53529
62.52,0.51569
62.528,0.49412
62.536,0.4902
62.544,0.48431
62.552,0.50588
62.56,0.51569
62.568,0.51961
62.576,0.51569
62.584,0.51961
62.592,0.51569
62.6,0.61569
62.608,0.63529
62.616,0.28431
62.624,-0.42353
62.632,-0.50196
62.64,-0.076471
62.648,0.32941
62.656,0.43529
62.664,0.48039
62.672,0.5
62.68,0.52549
62.688,0.53529
62.696,0.5451
62.704,0.52941
62.712,0.51961
62.72,0.51569
62.728,0.51961
62.736,0.52549
62.744,0.52941
62.752,0.51961
62.76,0.5098
62.768,0.5
62.776,0.5
62.784,0.5
62.792,0.5
62.8,0.5
62.808,0.5
62.816,0.5
62.824,0.5
62.832,0.5
62.84,0.49412
62.848,0.49412
62.856,0.49412
62.864,0.5
62.872,0.49412
62.88,0.49412
62.888,0.48039
62.896,0.48039
62.904,0.48039
62.912,0.48431
62.92,0.49412
62.928,0.5
62.936,0.50588
62.944,0.5
62.952,0.5098
62.96,0.51569
62.968,0.51961
62.976,0.51569
62.984,0.51961
62.992,0.51961
63,0.51961
63.008,0.51569
63.016,0.51961
63.024,0.51569
63.032,0.51961
63.04,0.51569
63.048,0.51569
63.056,0.5098
63.064,0.51569
63.072,0.5098
63.08,0.51569
63.088,0.51569
63.096,0.51961
63.104,0.51569
63.112,0.51961
63.12,0.51961
63.128,0.53922
63.136,0.56078
63.144,0.57451
63.152,0.58431
63.16,0.57059
63.168,0.5451
63.176,0.51961
63.184,0.5
63.192,0.47451
63.2,0.47451
63.208,0.47059
63.216,0.4902
63.224,0.49412
63.232,0.5
63.24,0.5
63.248,0.5
63.256,0.5
63.264,0.56078
63.272,0.6098
63.28,0.42941
63.288,-0.18627
63.296,-0.50196
63.304,-0.25294
63.312,0.24902
63.32,0.41961
63.328,0.46471
63.336,0.4902
63.344,0.51569
63.352,0.52941
63.36,0.52941
63.368,0.53922
63.376,0.51961
63.384,0.50588
63.392,0.50588
63.4,0.51961
63.408,0.51961
63.416,0.52549
63.424,0.51569
63.432,0.50588
63.44,0.50588
63.448,0.5098
63.456,0.50588
63.464,0.50588
63.472,0.49412
63.48,0.5
63.488,0.5
63.496,0.50588
63.504,0.5
63.512,0.5
63.52,0.5
63.528,0.50588
63.536,0.5098
63.544,0.5
63.552,0.5
63.56,0.5
63.568,0.5
63.576,0.5
63.584,0.5
63.592,0.5
63.6,0.5098
63.608,0.51961
63.616,0.52549
63.624,0.51961
63.632,0.51961
63.64,0.51961
63.648,0.52549
63.656,0.51961
63.664,0.52549
63.672,0.52941
63.68,0.53529
63.688,0.51961
63.696,0.52549
63.704,0.51961
63.712,0.52549
63.72,0.51961
63.728,0.51961
63.736,0.51961
63.744,0.52549
63.752,0.52549
63.76,0.51961
63.768,0.51961
63.776,0.51569
63.784,0.51961
63.792,0.53922
63.8,0.56078
63.808,0.57059
63.816,0.58039
63.824,0.5549
63.832,0.53922
63.84,0.5
63.848,0.48431
63.856,0.44902
63.864,0.4451
63.872,0.4451
63.88,0.4549
63.888,0.46078
63.896,0.47059
63.904,0.47451
63.912,0.47059
63.92,0.47451
63.928,0.57059
63.936,0.59608
63.944,0.3
63.952,-0.37255
63.96,-0.50196
63.968,-0.072549
63.976,0.3098
63.984,0.41961
63.992,0.4549
64,0.48039
64.008,0.5
64.016,0.5098
64.024,0.5098
64.032,0.51961
64.04,0.5
64.048,0.5
64.056,0.5
64.064,0.5098
64.072,0.5
64.08,0.50588
64.088,0.49412
64.096,0.49412
64.104,0.49412
64.112,0.5
64.12,0.5
64.128,0.5
64.136,0.48431
64.144,0.48431
64.152,0.48039
64.16,0.47451
64.168,0.47451
64.176,0.47451
64.184,0.47451
64.192,0.47059
64.2,0.47451
64.208,0.47451
64.216,0.47451
64.224,0.47451
64.232,0.47451
64.24,0.47451
64.248,0.5
64.256,0.5
64.264,0.51961
64.272,0.52549
64.28,0.51961
64.288,0.53529
64.296,0.52549
64.304,0.52549
64.312,0.52941
64.32,0.51961
64.328,0.52549
64.336,0.51961
64.344,0.51569
64.352,0.51961
64.36,0.51569
64.368,0.51961
64.376,0.5098
64.384,0.50588
64.392,0.5
64.4,0.5098
64.408,0.50588
64.416,0.5
64.424,0.4902
64.432,0.5
64.44,0.51961
64.448,0.53529
64.456,0.5549
64.464,0.58431
64.472,0.5902
64.48,0.53529
64.488,0.4902
64.496,0.49412
64.504,0.4902
64.512,0.4902
64.52,0.48039
64.528,0.4902
64.536,0.49412
64.544,0.4902
64.552,0.5
64.56,0.6
64.568,0.60588
64.576,0.16863
64.584,-0.47255
64.592,-0.50196
64.6,0.052941
64.608,0.36471
64.616,0.43922
64.624,0.47059
64.632,0.5
64.64,0.51961
64.648,0.51961
64.656,0.5
64.664,0.49412
64.672,0.48431
64.68,0.4902
64.688,0.49412
64.696,0.48431
64.704,0.47451
64.712,0.47451
64.72,0.46471
64.728,0.47451
64.736,0.47451
64.744,0.48039
64.752,0.48431
64.76,0.47451
64.768,0.47059
64.776,0.46471
64.784,0.4549
64.792,0.44902
64.8,0.4549
64.808,0.46078
64.816,0.4549
64.824,0.43529
64.832,0.43922
64.84,0.44902
64.848,0.47059
64.856,0.47451
64.864,0.5
64.872,0.5098
64.88,0.51961
64.888,0.51961
64.896,0.51961
64.904,0.51961
64.912,0.52941
64.92,0.52549
64.928,0.52549
64.936,0.52549
64.944,0.52941
64.952,0.53922
64.96,0.53922
64.968,0.53922
64.976,0.53922
64.984,0.53922
64.992,0.53529
65,0.53922
65.008,0.53529
65.016,0.5451
65.024,0.53922
65.032,0.5451
65.04,0.5451
65.048,0.5451
65.056,0.5451
65.064,0.56078
65.072,0.5549
65.08,0.57059
65.088,0.57059
65.096,0.57059
65.104,0.57059
65.112,0.58431
65.12,0.60588
65.128,0.62941
65.136,0.64118
65.144,0.62549
65.152,0.59608
65.16,0.57059
65.168,0.55098
65.176,0.52941
65.184,0.52549
65.192,0.52549
65.2,0.53922
65.208,0.55098
65.216,0.5549
65.224,0.5451
65.232,0.55098
65.24,0.5451
65.248,0.63529
65.256,0.65098
65.264,0.31961
65.272,-0.35686
65.28,-0.50196
65.288,-0.0019608
65.296,0.39412
65.304,0.48039
65.312,0.5098
65.32,0.52549
65.328,0.53529
65.336,0.53922
65.344,0.55098
65.352,0.5549
65.36,0.52549
65.368,0.51961
65.376,0.51569
65.384,0.52549
65.392,0.51961
65.4,0.5098
65.408,0.5
65.416,0.5
65.424,0.5
65.432,0.5
65.44,0.5
65.448,0.5
65.456,0.4902
65.464,0.48431
65.472,0.48039
65.48,0.48039
65.488,0.47451
65.496,0.47451
65.504,0.47451
65.512,0.48431
65.52,0.47451
65.528,0.48039
65.536,0.47451
65.544,0.48039
65.552,0.48431
65.56,0.4902
65.568,0.49412
65.576,0.5
65.584,0.51961
65.592,0.51961
65.6,0.52549
65.608,0.51961
65.616,0.51961
65.624,0.51961
65.632,0.51961
65.64,0.51961
65.648,0.51961
65.656,0.51569
65.664,0.51961
65.672,0.51569
65.68,0.51961
65.688,0.51569
65.696,0.51961
65.704,0.51569
65.712,0.51961
65.72,0.51569
65.728,0.51961
65.736,0.51961
65.744,0.51961
65.752,0.51961
65.76,0.51961
65.768,0.51961
65.776,0.53529
65.784,0.5549
65.792,0.57059
65.8,0.58431
65.808,0.57059
65.816,0.5451
65.824,0.51961
65.832,0.50588
65.84,0.47451
65.848,0.47451
65.856,0.47451
65.864,0.48431
65.872,0.49412
65.88,0.5
65.888,0.5
65.896,0.5
65.904,0.49412
65.912,0.56471
65.92,0.6098
65.928,0.37451
65.936,-0.27647
65.944,-0.50196
65.952,-0.20784
65.96,0.26471
65.968,0.41569
65.976,0.46078
65.984,0.49412
65.992,0.5098
66,0.52549
66.008,0.52549
66.016,0.52941
66.024,0.51569
66.032,0.5098
66.04,0.50588
66.048,0.51961
66.056,0.51961
66.064,0.52549
66.072,0.5098
66.08,0.5098
66.088,0.50588
66.096,0.50588
66.104,0.5
66.112,0.49412
66.12,0.4902
66.128,0.49412
66.136,0.5
66.144,0.5
66.152,0.50588
66.16,0.5
66.168,0.5
66.176,0.5
66.184,0.5
66.192,0.5
66.2,0.5
66.208,0.5
66.216,0.5
66.224,0.5
66.232,0.5
66.24,0.50588
66.248,0.51569
66.256,0.51961
66.264,0.51961
66.272,0.51961
66.28,0.51961
66.288,0.51961
66.296,0.52549
66.304,0.51961
66.312,0.51961
66.32,0.51961
66.328,0.51961
66.336,0.52549
66.344,0.52549
66.352,0.52549
66.36,0.51961
66.368,0.52549
66.376,0.52941
66.384,0.51961
66.392,0.52549
66.4,0.52941
66.408,0.51961
66.416,0.51961
66.424,0.51961
66.432,0.52549
66.44,0.5451
66.448,0.57059
66.456,0.58039
66.464,0.58431
66.472,0.56471
66.48,0.5451
66.488,0.50588
66.496,0.49412
66.504,0.47059
66.512,0.47059
66.52,0.47059
66.528,0.48431
66.536,0.5
66.544,0.5
66.552,0.50588
66.56,0.5
66.568,0.50588
66.576,0.60588
66.584,0.61569
66.592,0.22353
66.6,-0.45686
66.608,-0.50196
66.616,0.0078431
66.624,0.3549
66.632,0.44902
66.64,0.4902
66.648,0.5098
66.656,0.51961
66.664,0.53529
66.672,0.53922
66.68,0.52941
66.688,0.5098
66.696,0.50588
66.704,0.50588
66.712,0.51961
66.72,0.51569
66.728,0.5
66.736,0.4902
66.744,0.48431
66.752,0.4902
66.76,0.48431
66.768,0.4902
66.776,0.48039
66.784,0.47451
66.792,0.48039
66.8,0.47451
66.808,0.47059
66.816,0.48039
66.824,0.47451
66.832,0.48039
66.84,0.47059
66.848,0.47451
66.856,0.47451
66.864,0.47451
66.872,0.47451
66.88,0.48039
66.888,0.48039
66.896,0.5
66.904,0.5098
66.912,0.51961
66.92,0.51961
66.928,0.52941
66.936,0.52549
66.944,0.52941
66.952,0.52941
66.96,0.52941
66.968,0.52549
66.976,0.52549
66.984,0.52941
66.992,0.52549
67,0.52941
67.008,0.51961
67.016,0.52941
67.024,0.51961
67.032,0.51961
67.04,0.51569
67.048,0.51961
67.056,0.51961
67.064,0.52941
67.072,0.52549
67.08,0.52941
67.088,0.52549
67.096,0.55098
67.104,0.56078
67.112,0.58039
67.12,0.5902
67.128,0.57451
67.136,0.5451
67.144,0.51569
67.152,0.49412
67.16,0.47451
67.168,0.47451
67.176,0.47059
67.184,0.48431
67.192,0.49412
67.2,0.5
67.208,0.5
67.216,0.5
67.224,0.49412
67.232,0.56078
67.24,0.59608
67.248,0.36471
67.256,-0.23725
67.264,-0.50196
67.272,-0.11176
67.28,0.31961
67.288,0.4451
67.296,0.47059
67.304,0.4902
67.312,0.50588
67.32,0.5098
67.328,0.50588
67.336,0.51569
67.344,0.5
67.352,0.48431
67.36,0.48039
67.368,0.49412
67.376,0.5
67.384,0.49412
67.392,0.48039
67.4,0.47451
67.408,0.47451
67.416,0.47451
67.424,0.47451
67.432,0.48039
67.44,0.46078
67.448,0.4549
67.456,0.4451
67.464,0.43922
67.472,0.43529
67.48,0.43922
67.488,0.43922
67.496,0.4451
67.504,0.43922
67.512,0.4451
67.52,0.44902
67.528,0.4549
67.536,0.46078
67.544,0.47451
67.552,0.48431
67.56,0.5
67.568,0.51569
67.576,0.51961
67.584,0.51569
67.592,0.5098
67.6,0.51569
67.608,0.5098
67.616,0.5098
67.624,0.5098
67.632,0.51569
67.64,0.50588
67.648,0.50588
67.656,0.49412
67.664,0.5
67.672,0.5
67.68,0.50588
67.688,0.5
67.696,0.4902
67.704,0.47059
67.712,0.48039
67.72,0.49412
67.728,0.50588
67.736,0.5098
67.744,0.51961
67.752,0.51961
67.76,0.53922
67.768,0.5451
67.776,0.56078
67.784,0.56471
67.792,0.53922
67.8,0.51569
67.808,0.48431
67.816,0.47451
67.824,0.46471
67.832,0.46078
67.84,0.46471
67.848,0.48039
67.856,0.4902
67.864,0.4902
67.872,0.48431
67.88,0.4902
67.888,0.49412
67.896,0.6
67.904,0.6098
67.912,0.24902
67.92,-0.42745
67.928,-0.50196
67.936,0.017647
67.944,0.39412
67.952,0.47451
67.96,0.5098
67.968,0.52941
67.976,0.5451
67.984,0.56078
67.992,0.57059
68,0.57059
68.008,0.5549
68.016,0.55098
68.024,0.5549
68.032,0.56078
68.04,0.56078
68.048,0.5549
68.056,0.5451
68.064,0.5451
68.072,0.5451
68.08,0.5549
68.088,0.55098
68.096,0.5451
68.104,0.52549
68.112,0.52549
68.12,0.51569
68.128,0.51569
68.136,0.5
68.144,0.5
68.152,0.5
68.16,0.5
68.168,0.5098
68.176,0.51569
68.184,0.51961
68.192,0.51569
68.2,0.52549
68.208,0.53529
68.216,0.5451
68.224,0.5549
68.232,0.57059
68.24,0.57059
68.248,0.57059
68.256,0.57059
68.264,0.56471
68.272,0.56078
